PDS_VERSION_ID         = PDS3
RECORD_TYPE            = STREAM
OBJECT                 = TEXT
  PUBLICATION_DATE     = 2014-02-19
  INTERCHANGE_FORMAT   = ASCII
  NOTE                 = "NAC hot pixel file for epoch 2004.3."
END_OBJECT             = TEXT
END

NAC hot pixel list. Lines 1 and 2 are column headings giving exposure time 
(sec) and gain state (e-/DN), respectively, of source dark images. Starting 
on line 3, first two columns indicate x and y value of hot pixel; columns 3 
through N-1 give median electron counts for each exposure bin, and last (Nth) 
column contains either the index of the exposure bin where saturation first 
occurs, or -1 if no saturation.

\begindata
      0.00000      0.00000   0.00500000     0.100000     0.320000      1.00000      1.20000      3.20000      4.60000      8.20000      10.0000      26.0000      32.0000      38.0000      56.0000      120.000      220.000      380.000      1200.00
      0.00000      0.00000      12.8410      12.8410      12.8410      30.2700      30.2700      30.2700      30.2700      12.8410      30.2700      30.2700      30.2700      30.2700      30.2700      30.2700      30.2700      30.2700      30.2700
      919.000      199.000      28.7608      34.4854      39.9142      56.8206      1096.77      123.525      158.759      6770.51      318.799      751.289      41656.9      29347.3      1549.02      3228.92      5683.17      9414.61      27357.4     -1.00000
      98.0000      87.0000      92.3357      184.741      331.955      945.341      1093.58      2728.80      3882.55      6797.61      8314.60      21274.4      25869.6      30503.6      43765.0      84783.3      123483.      123469.      123498.      14.0000
      37.0000      647.000      128.407      202.971      342.718      866.561      1029.49      2692.48      3837.87      6921.61      8345.50      21347.8      26709.6      30219.1      43799.5      82741.9      123502.      123480.      123478.      14.0000
      599.000      452.000      112.089      171.732      313.999      806.126      960.617      2387.32      3384.28      6049.39      7251.28      18368.7      22129.5      26176.8      37301.7      71316.0      111820.      123476.      123482.      15.0000
      123.000      79.0000      103.932      186.024      407.076      971.965      1369.18      2929.04      4119.57      7831.80      8748.41      21694.7      26283.9      35623.1      43389.1      78804.2      113338.      123484.      123476.      15.0000
      766.000      863.000      57.0481      66.0510      51.9077      58.8494      491.767      80.9690      65.7770      3101.25      88.0761      133.496      363.528      13948.8      186.552      273.950      314.380      387.282      589.489     -1.00000
      726.000      603.000      43.3474      39.0775      32.1921      36.0783      454.781      60.9477      60.2084      4235.93      95.3345      127.513      1766.18      12457.7      180.475      250.966      305.098      381.458      497.359     -1.00000
      578.000      312.000      76.5749      125.383      210.273      508.354      619.654      1539.56      2229.62      4099.42      4938.44      12620.3      15587.5      17440.9      23217.4      44832.7      70862.0      106790.      123484.      16.0000
      689.000      807.000      97.2979      102.855      152.248      295.687      340.965      820.653      1102.41      2017.73      2379.61      6295.86      8132.45      9834.69      14329.1      30781.8      53765.9      90670.8      123474.      16.0000
      844.000      950.000      86.8241      121.312      179.819      354.250      429.781      968.732      1407.62      2594.58      3173.12      8481.58      10167.6      13349.3      18482.2      37631.3      62473.7      93484.6      123481.      16.0000
      762.000      386.000      59.2424      92.4223      143.440      303.066      361.889      896.491      1286.66      2401.05      2835.14      7291.48      9078.19      10617.2      15451.1      32075.3      55296.2      86587.3      123490.      16.0000
      305.000      696.000      53.2850      53.4973      53.1303      60.3880      359.610      93.8581      117.656      1932.32      175.035      296.964      378.518      9323.95      544.810      1003.14      1684.01      2684.87      8216.70     -1.00000
      487.000      880.000      75.5996      122.708      206.709      371.500      419.419      900.732      1327.24      2593.50      2778.22      7331.59      10693.9      11997.2      19423.2      39265.4      55236.1      85145.9      123475.      16.0000
      617.000      756.000      82.9495      98.2824      133.344      308.124      468.862      827.139      1154.47      2806.34      2228.48      6676.69      11273.2      13028.7      14480.2      30440.6      53047.2      83064.7      123490.      16.0000
      77.0000      547.000      65.0673      84.9067      115.411      244.407      274.367      662.736      941.646      1664.00      1984.22      5118.28      6249.50      7527.01      11159.3      23978.0      43662.1      73873.2      123476.      16.0000
      817.000      592.000      83.1591      89.8410      161.872      277.813      345.209      917.393      1149.86      1933.05      2410.39      6351.43      7880.42      9329.52      14078.6      28707.3      50099.8      77456.4      123475.      16.0000
      847.000      345.000      61.2029      67.3966      122.906      275.272      309.823      780.042      1097.13      1958.86      2326.51      6143.75      7608.33      8917.24      12980.4      27191.7      46908.9      74046.7      123501.      16.0000
      719.000      958.000      87.3930      103.487      154.749      297.879      352.047      782.607      1087.76      1926.41      2278.96      5999.40      7414.49      8830.80      12969.1      27069.9      46542.1      70713.8      123483.      16.0000
      307.000      107.000      20.6081      62.0754      91.9555      235.613      273.062      702.633      996.934      1698.13      2096.16      5355.33      6660.61      7756.45      11371.9      23234.8      40557.8      64988.3      123480.      16.0000
      277.000      703.000      78.1696      87.4426      146.011      234.831      270.481      596.139      829.585      1503.82      1728.34      4534.26      5560.09      6700.58      9898.98      21605.6      38927.6      63794.7      123479.      16.0000
      731.000      536.000      57.2249      83.9669      137.178      268.462      266.614      760.333      1056.84      1671.03      2298.52      6117.67      6874.01      8029.74      12958.8      26375.5      44909.0      68494.1      123482.      16.0000
      64.0000      357.000      54.7800      86.4197      111.684      239.237      300.805      714.025      995.577      1767.57      2150.22      5480.86      6667.55      7915.97      11734.9      24273.2      41958.9      65779.8      123476.      16.0000
      691.000      97.0000      19.6062      38.8288      85.3407      176.277      212.424      549.110      798.522      1410.61      1725.02      4394.89      5884.35      6284.88      9398.06      19584.4      34832.7      58476.6      123478.      16.0000
      232.000      45.0000      16.6922      57.6607      101.446      220.084      248.181      636.130      888.727      1667.52      1927.41      4992.37      6209.28      7203.64      10564.5      21821.1      38100.3      60898.7      123490.      16.0000
      755.000      324.000      52.0355      74.3172      94.0171      187.051      230.977      524.281      754.174      761.127      1604.92      4262.03      5166.20      6136.31      8945.39      19248.5      34196.1      57367.6      123477.      16.0000
      173.000      726.000      55.3360      97.1011      122.137      261.153      272.668      620.182      862.810      1516.80      1791.24      4837.61      5981.56      7070.09      10382.7      21764.3      37926.8      60557.1      123472.      16.0000
      417.000      152.000      36.2398      68.8248      92.7470      210.763      251.057      652.314      912.639      1613.99      1962.09      4973.17      6211.32      7319.42      10524.5      21933.8      37655.5      59935.7      123483.      16.0000
      757.000      317.000      47.0422      65.7232      101.523      239.013      268.299      631.707      914.115      1675.72      1981.98      5097.49      6232.63      7402.45      10812.9      22214.2      38192.5      60189.1      123478.      16.0000
      210.000      160.000      42.6228      63.8325      108.430      250.822      291.518      710.360      1021.91      1844.62      2156.07      5398.21      6674.44      7911.78      11384.9      23014.6      39491.7      60340.7      123481.      16.0000
      624.000      893.000      84.7101      98.9781      110.912      242.939      259.388      555.647      765.038      1435.92      1677.47      4305.48      5166.78      6263.76      9268.78      19687.4      34658.0      56300.3      123476.      16.0000
      207.000      732.000      78.3921      81.9910      111.505      228.745      74.7824      563.874      821.048      271.841      1744.78      4605.66      5581.44      751.081      9937.52      20688.3      35935.6      57017.6      123474.      16.0000
      774.000      911.000      83.4996      93.2493      121.125      232.187      248.739      547.391      778.341      1426.07      1631.75      4281.05      5373.76      6324.83      9409.45      19533.1      34325.3      54942.4      123481.      16.0000
      87.0000      156.000      41.6633      58.0061      80.6534      179.297      205.693      545.576      729.107      1267.07      1519.78      3938.76      4794.11      5712.91      8402.18      17532.6      31476.2      51684.4      123484.      16.0000
      462.000      84.0000      38.4266      41.1387      71.9537      168.929      222.722      512.516      719.116      1443.08      1546.40      3955.52      5412.40      6472.77      8379.74      17647.4      31275.8      51414.1      123493.      16.0000
      43.0000      578.000      57.3398      82.6683      107.250      204.685      213.515      510.962      698.033      999.282      1426.72      3812.45      4401.00      5300.59      8315.17      17557.3      31753.4      51688.1      123495.      16.0000
      213.000      482.000      60.1351      76.7523      79.7819      141.268      211.241      406.878      578.192      1200.16      1229.94      3152.56      4564.53      5535.83      6805.30      14856.5      27232.2      45080.3      123466.      16.0000
      64.0000      477.000      51.3855      78.6957      94.2160      172.055      231.199      395.452      548.294      1301.60      1125.16      2866.32      4953.43      5911.41      6239.88      13331.0      24246.2      41227.6      121667.     -1.00000
      723.000      909.000      77.4754      79.2200      64.8932      105.038      106.021      153.146      229.963      386.364      448.956      985.002      1174.86      1368.81      1968.28      4142.57      7382.62      12641.7      121654.     -1.00000
      191.000      582.000      68.6082      68.9110      101.560      185.368      232.079      511.507      712.961      1274.52      1483.27      3878.60      4805.01      5699.16      8493.54      17825.8      31372.4      50904.8      120758.     -1.00000
      795.000      80.0000      24.0759      2.61353      11.7868      20.8661      25.5127      43.2575      31.3145      1008.64      47.1686      113.986      115.526      349.412      142.304      239.328      293.365      342.520      385.914     -1.00000
      500.000      704.000      71.7391      66.3415      96.6702      186.743      188.744      429.392      582.119      1041.60      1183.69      3233.25      4012.43      4786.64      7057.77      15184.0      27356.8      45186.6      120317.     -1.00000
      744.000      647.000      53.0575      85.7833      92.3177      192.032      259.663      478.084      626.477      1417.94      1330.28      3435.21      4770.13      6184.20      7423.32      15767.8      27909.7      45945.3      118065.     -1.00000
      247.000      466.000      54.5595      69.4550      86.6745      158.056      163.918      395.852      521.610      906.202      1117.81      2747.23      3342.36      3956.28      5936.82      11900.5      23028.6      38928.9      114519.     -1.00000
      584.000      74.0000      19.5187      59.1101      49.9081      142.540      154.554      399.428      572.078      1036.45      1223.13      3177.71      3871.36      4576.77      6746.53      14026.8      25156.6      41397.3      112798.     -1.00000
      12.0000      288.000      12.8469      32.9075      44.6258      129.731      58.9005      363.081      555.307      1054.92      1277.79      3302.75      1776.44      2060.40      6586.73      13849.0      26865.2      44495.4      112757.     -1.00000
      977.000      227.000      32.9575      40.5046      59.4399      138.628      98.5253      356.970      475.476      501.489      1021.49      2592.73      2985.59      2199.20      5569.20      11979.6      22052.1      37277.6      111031.     -1.00000
      798.000      803.000      65.3844      73.1865      110.706      172.290      59.3320      393.045      547.972      108.197      1120.71      2959.64      6239.77      244.472      6781.23      14192.0      25291.3      41762.3      110152.     -1.00000
      985.000      997.000      69.0945      82.3311      99.2653      155.629      208.720      405.901      569.672      1036.48      1180.95      3147.08      3994.71      4616.15      6820.72      14587.7      26031.5      42894.3      110184.     -1.00000
      802.000      40.0000      23.4776      26.4293      59.1175      146.116      179.649      449.294      643.436      1192.05      1386.99      3676.72      4542.91      5288.93      7773.11      16146.3      28018.8      45928.5      107606.     -1.00000
      566.000      332.000      45.2056      37.6559      73.2484      144.647      173.210      393.323      549.999      976.618      1181.06      3056.71      3752.07      4446.21      6558.29      13880.0      24659.9      41112.2      106734.     -1.00000
      592.000      399.000      38.8488      52.2857      74.5473      135.385      157.997      301.047      463.625      902.162      966.523      2491.15      3334.07      3928.67      5327.46      11423.9      20749.6      35888.6      106743.     -1.00000
      845.000      863.000      69.8892      77.3529      102.651      160.856      182.268      375.155      500.634      848.119      999.705      2424.69      3052.58      3583.48      5213.64      11526.9      21404.9      36664.9      105495.     -1.00000
      552.000      694.000      58.9646      87.7719      94.5603      183.027      180.164      437.346      581.380      987.521      1234.52      3117.44      3816.78      4383.30      6673.72      14012.4      24928.7      40629.4      98388.6     -1.00000
      771.000      492.000      57.6614      64.1045      92.4630      155.207      172.622      389.282      543.092      977.429      1168.70      2965.56      3670.83      4307.48      6402.49      13416.0      24000.0      39418.0      96772.8     -1.00000
      325.000      995.000      77.0496      87.9195      104.902      148.130      163.131      335.221      464.293      754.286      905.493      2292.50      2833.09      3391.74      5126.76      11138.4      20201.5      34566.0      95966.4     -1.00000
      444.000      692.000      66.9050      58.8725      90.4696      148.834      317.478      371.123      521.622      1774.41      1045.53      2651.69      15962.1      8329.18      5785.73      12267.4      21964.2      36487.1      95200.4     -1.00000
      758.000      44.0000      19.1703      29.4107      74.5310      109.939      135.465      348.778      458.155      848.227      1021.13      2574.55      3134.76      3718.19      5505.28      11436.5      20593.0      34293.0      92011.8     -1.00000
      147.000      68.0000      17.2778      33.6514      84.3830      150.022      191.304      489.465      669.268      1186.09      1478.07      3736.79      4543.89      5363.67      7830.64      16583.8      40234.7      48657.8      123472.      16.0000
      476.000      340.000      44.7334      49.7090      97.3283      136.215      168.139      365.992      519.180      906.337      1059.24      2753.00      3451.96      4064.53      5988.11      12491.7      22199.3      36293.1      91997.0     -1.00000
      62.0000      49.0000      23.3660      35.0750      73.6119      144.640      166.334      391.796      553.084      974.344      1137.57      2838.27      3474.50      4170.31      6055.94      12604.9      22330.3      36211.9      90443.6     -1.00000
      466.000      294.000      41.4184      61.5092      88.0209      124.326      154.548      349.516      478.262      795.835      1029.13      2549.40      2966.29      3505.24      5321.97      11355.8      20442.7      33886.9      90432.0     -1.00000
      831.000      59.0000      24.2698      30.1315      59.4456      117.688      123.632      319.102      444.588      783.153      946.618      2381.28      2952.39      3522.47      5229.85      10938.2      19724.9      32924.6      89636.4     -1.00000
      945.000      352.000      23.2424      51.6193      32.2749      52.4451      60.9825      298.545      348.419      225.287      859.653      1754.40      792.834      990.601      388.041      692.692      17178.6      28639.0      410.564     -1.00000
      324.000      402.000      44.1100      46.1633      37.4505      53.5112      178.238      71.6128      77.1228      974.451      92.8972      164.782      3454.14      4070.11      245.142      385.474      535.737      709.133      89257.6     -1.00000
      563.000      903.000      74.3255      76.0801      94.2335      151.654      154.656      289.088      392.949      695.155      791.809      2057.07      2634.90      3145.68      4448.38      9591.43      17873.8      30424.2      89632.7     -1.00000
      501.000      448.000      41.3585      36.0319      73.6725      124.163      98.8318      312.615      401.077      504.114      846.179      2151.94      1762.73      2133.16      4660.11      9872.39      17396.1      28391.7      24733.4     -1.00000
      424.000      78.0000      20.3517      31.7436      54.2159      121.145      132.724      335.222      453.420      821.262      963.927      2417.47      2988.58      3545.79      5186.05      10827.7      19592.1      32463.3      88086.6     -1.00000
      576.000      320.000      50.4878      55.7451      87.0320      178.589      201.128      391.470      553.374      900.142      1097.79      2688.52      3301.90      3860.49      5622.08      11954.9      21388.8      34975.0      87306.2     -1.00000
      705.000      164.000      37.0222      46.2984      38.5063      114.053      121.307      270.048      398.695      719.876      901.481      2279.83      2814.72      3301.50      4887.00      10331.2      18542.3      31072.5      85766.0     -1.00000
      247.000      467.000      58.2062      52.1651      64.8035      127.604      115.193      232.448      334.281      569.225      654.269      1688.29      2033.47      2400.83      3510.61      7068.84      13763.5      24035.5      80522.4     -1.00000
      941.000      993.000      61.8151      81.7435      97.9886      145.397      136.585      269.013      348.150      626.166      745.835      1895.49      2232.26      2708.42      3904.38      8627.48      16020.6      28225.3      85760.6     -1.00000
      724.000      209.000      36.4395      35.5600      68.3100      123.515      144.553      353.210      487.184      805.676      1025.04      2646.58      3301.51      3838.76      5562.79      11716.5      20635.8      33796.5      85002.3     -1.00000
      527.000      84.0000      29.2426      27.8059      49.8451      138.659      159.908      350.717      488.869      1116.75      1001.54      2597.30      3859.00      4418.49      5488.82      11250.7      20093.4      32932.6      84279.5     -1.00000
      312.000      158.000      29.5535      44.3590      48.5442      110.848      120.481      289.559      418.746      758.750      873.046      2325.45      2797.57      3337.15      4873.95      10270.2      18546.7      31315.7      84255.8     -1.00000
      345.000      537.000      58.5903      62.8942      87.4931      148.088      174.996      393.642      543.361      794.506      1157.72      2974.31      3330.62      4292.71      6240.26      13113.8      23144.8      36925.8      82391.1     -1.00000
      903.000      99.0000      32.1743      20.0512      32.9778      82.5903      57.6220      239.740      299.434      272.393      696.626      1724.03      789.510      1006.77      3705.00      8373.36      15232.2      24893.7      80881.4     -1.00000
      919.000      948.000      72.5576      69.1706      95.2638      151.484      155.443      272.619      384.267      632.889      739.443      1871.67      2367.30      2846.38      4136.42      9018.59      16683.5      28243.3      80166.5     -1.00000
      96.0000      767.000      76.7552      79.5354      92.6799      142.072      190.484      308.736      428.137      979.353      849.995      2157.81      3680.98      4291.92      4591.19      9686.16      17555.4      29213.1      79038.5     -1.00000
      21.0000      284.000      23.3147      41.9273      63.9997      94.1975      63.8712      238.977      356.811      325.792      739.547      1933.12      1158.06      1384.82      3888.78      7984.53      14604.9      24841.8      386.709     -1.00000
      704.000      185.000      13.7159      25.0725      48.0196      87.1575      160.920      243.151      327.442      908.464      701.096      1869.22      2490.43      4715.33      3971.29      8506.51      15294.8      26027.7      77954.4     -1.00000
      665.000      677.000      71.8138      70.7439      72.7251      150.918      228.179      299.745      394.030      1260.95      846.364      2179.47      4766.74      5592.24      4642.38      9683.31      17429.6      28744.2      76497.8     -1.00000
      785.000      572.000      62.8132      70.4821      87.7234      138.062      162.401      332.205      428.857      767.632      885.509      2296.48      2801.57      3394.37      5023.86      10515.2      18778.3      30662.5      75423.2     -1.00000
      54.0000      947.000      80.0794      97.4865      91.9782      125.026      141.007      238.460      345.791      631.374      722.536      1848.87      2332.21      2732.38      4055.53      8773.10      16227.8      27190.4      75079.9     -1.00000
      460.000      592.000      53.3436      60.6528      73.4680      126.463      147.631      272.512      353.301      725.996      757.944      1829.85      2646.61      3091.17      3907.87      8309.89      15139.2      25669.8      74704.0     -1.00000
      417.000      843.000      65.5111      68.6533      97.6832      144.750      155.198      268.926      360.846      631.117      747.028      1839.34      2231.92      2690.15      3940.34      8509.78      15678.6      26572.0      73981.8     -1.00000
      680.000      284.000      28.0565      33.1303      46.8096      114.591      121.949      256.536      369.674      633.977      734.016      1842.31      2350.20      2722.86      3940.88      8354.28      15018.6      25341.6      71870.5     -1.00000
      373.000      655.000      46.7374      59.0457      87.3717      118.449      146.225      300.000      394.205      693.634      817.750      2087.74      2539.53      3009.21      4455.51      9564.49      16881.4      28114.9      71863.1     -1.00000
      819.000      249.000      37.3903      32.6231      53.8966      93.4320      122.355      223.332      316.482      636.691      659.965      1748.99      2337.10      2731.61      3756.49      8047.29      14725.1      24790.7      71538.0     -1.00000
      402.000      33.0000      9.29530      21.6840      27.5905      94.3631      107.980      244.850      336.228      644.358      754.487      1909.79      2345.30      2780.69      4063.61      8402.60      15221.6      25620.3      70826.6     -1.00000
      777.000      92.0000      32.8579      34.2765      51.3772      144.629      161.890      400.684      568.387      1005.38      1176.02      3068.07      3847.27      4541.02      6637.21      13840.0      24449.4      39526.3      68772.2     -1.00000
      98.0000      86.0000      30.6845      9.54680      17.3916      32.7454      25.0032      54.4389      35.8718      102.329      52.9220      118.678      126.511      144.690      155.495      241.217      341.557      331.234      68429.1     -1.00000
      540.000      708.000      71.3652      66.5342      79.6774      126.532      127.026      243.679      324.951      579.765      664.336      1585.28      2026.20      2281.26      3551.27      7565.53      13878.9      23630.8      68101.5     -1.00000
      149.000      961.000      76.0884      68.2670      86.2984      134.402      129.658      227.242      306.726      526.743      583.144      1465.52      1786.90      2162.17      3200.51      7082.70      12977.1      22468.9      67079.1     -1.00000
      784.000      648.000      54.1607      55.5852      87.0707      120.617      124.817      244.396      324.570      515.044      647.126      1571.04      2033.65      2353.52      3508.91      7580.64      13595.3      23162.2      66387.8     -1.00000
      78.0000      174.000      25.1103      40.2050      63.6456      115.410      128.865      261.521      386.616      692.566      777.460      1961.67      2481.09      2877.98      4203.79      8545.71      15331.8      25289.5      65720.1     -1.00000
      694.000      17.0000      29.8105      36.6327      41.9381      67.7183      102.155      219.475      339.358      626.997      694.045      1733.49      2207.61      2655.82      3703.76      7772.60      13843.6      23042.1      65060.8     -1.00000
      88.0000      291.000      46.5331      43.9786      72.0619      115.051      141.805      296.010      411.103      760.692      876.979      2186.13      2641.81      3155.23      4535.81      9386.11      16515.7      26850.2      65052.9     -1.00000
      37.0000      648.000      69.8570      73.2127      81.2219      106.227      93.4137      134.305      158.642      205.748      204.895      290.361      302.584      335.913      396.619      558.909      701.500      996.880      65058.9     -1.00000
      900.000      287.000      35.7509      32.7573      50.6688      113.882      127.747      239.550      343.074      637.804      716.677      1787.93      2482.27      2872.25      3810.08      8059.03      14367.1      23808.1      64385.7     -1.00000
      895.000      34.0000      11.4779      13.1410      30.6044      84.7111      77.7638      211.950      279.536      564.284      632.305      1608.74      2027.96      2363.90      3447.39      7323.81      13100.5      22096.4      63083.6     -1.00000
      369.000      243.000      28.4191      42.2974      41.0530      71.8191      87.0060      183.948      272.246      503.682      580.862      1462.89      1799.01      2142.35      3096.93      6596.07      11993.5      20412.2      62449.2     -1.00000
      836.000      68.0000      4.43675      30.3932      27.8073      73.0437      83.3357      189.260      275.759      503.804      569.604      1450.77      1761.40      2093.53      3108.22      6532.68      11798.2      19907.7      59841.6     -1.00000
      589.000      757.000      59.5825      73.2263      73.7785      114.903      128.456      215.871      308.758      500.375      579.065      1428.40      1912.57      2213.94      3031.77      6517.57      11880.7      20384.1      59208.5     -1.00000
      618.000      917.000      70.0983      91.0079      90.3351      116.307      123.155      217.227      289.265      498.775      576.172      1387.18      1688.72      1989.82      2965.61      6260.71      11417.2      19713.3      59193.5     -1.00000
      63.0000      21.0000      30.3099      15.7422      33.2708      64.6631      90.4088      213.581      296.081      570.740      632.422      1644.61      2040.39      2392.92      3504.09      7197.46      13095.8      21504.2      58576.6     -1.00000
      910.000      336.000      30.2728      39.2180      63.9854      69.5774      107.516      241.421      297.891      483.122      583.306      1429.02      1783.78      2006.49      2984.30      6323.82      11390.6      19265.9      58583.4     -1.00000
      132.000      518.000      41.4889      50.9912      56.8197      110.996      73.5628      225.902      296.275      501.814      555.023      1386.81      1756.24      641.682      2919.70      6155.72      11225.1      19245.7      58619.8     -1.00000
      815.000      457.000      44.0093      50.1524      58.0374      84.8979      98.1423      181.847      262.408      439.837      536.870      1322.37      1655.86      1971.91      2901.05      6289.22      11525.4      19620.2      58576.4     -1.00000
      734.000      809.000      56.7677      83.6213      69.0936      111.398      113.996      221.696      272.854      468.323      523.304      1322.88      1649.31      1907.60      2806.96      5990.94      11068.7      19010.9      57939.1     -1.00000
      476.000      545.000      58.5173      65.6097      67.0067      97.4840      110.042      237.071      288.761      531.646      562.327      1431.80      1763.22      2066.92      3020.42      6461.66      11674.8      19795.8      56698.3     -1.00000
      36.0000      611.000      64.7463      56.8798      69.8693      75.5171      114.115      226.719      278.972      499.576      513.754      1350.30      1663.17      2048.77      2831.21      6142.30      11113.6      19095.4      56713.4     -1.00000
      366.000      691.000      58.0053      73.4390      84.3845      96.8356      120.526      221.079      287.561      516.794      579.989      1497.68      1785.80      2184.59      3187.53      6786.82      12066.0      20438.2      56701.3     -1.00000
      867.000      740.000      65.6429      60.0964      83.8571      127.625      111.333      209.080      314.483      580.607      655.390      1633.49      1810.86      2173.54      3571.79      7539.76      13626.1      22997.3      56699.3     -1.00000
      555.000      944.000      77.4279      84.5824      88.6531      123.980      128.009      209.715      291.363      424.981      541.637      1363.68      1771.84      2117.66      2902.96      6220.35      11261.8      19241.6      54856.5     -1.00000
      674.000      317.000      22.9190      40.0411      50.7872      90.7066      89.7561      210.038      275.010      507.187      583.936      1405.16      1758.22      2067.57      2999.65      6503.21      11529.9      19392.5      54261.1     -1.00000
      527.000      645.000      69.7640      48.4797      76.0281      91.3484      125.399      183.817      273.139      436.923      541.624      1281.79      1578.79      1865.87      2788.54      5979.24      10694.3      18169.4      53646.5     -1.00000
      392.000      1015.00      73.2798      80.2384      93.6319      117.733      123.140      239.346      277.496      463.906      523.310      1299.92      1522.52      1840.70      2678.56      5874.10      10857.6      18375.6      53649.1     -1.00000
      641.000      90.0000      13.7111      12.8521      29.6898      61.6539      80.9687      162.198      238.797      500.157      457.039      1154.51      1420.27      1670.05      2469.79      5134.69      9375.02      15816.6      48907.7     -1.00000
      658.000      835.000      63.4712      67.7814      77.6671      90.9911      116.179      206.975      274.771      455.742      525.678      1304.70      1590.99      1908.25      2816.66      6079.79      11133.8      18773.5      53356.9     -1.00000
      401.000      599.000      61.1137      64.2214      69.2013      100.708      113.376      206.859      293.209      504.610      619.396      1512.04      1791.46      2079.03      3075.74      6458.97      11660.3      19465.7      53070.9     -1.00000
      154.000      877.000      70.1208      73.0248      64.1033      122.800      119.576      206.442      279.956      436.303      510.994      1202.46      1506.77      1747.56      2527.21      5531.45      10252.4      17461.0      52133.9     -1.00000
      37.0000      544.000      35.7012      49.2998      65.7112      95.8706      91.1200      151.737      267.562      501.093      530.883      1314.56      1644.16      1970.14      2718.12      5835.94      10489.4      17030.9      52138.7     -1.00000
      453.000      128.000      26.9513      30.6599      41.3918      69.8041      89.7818      181.082      258.277      439.873      529.271      1298.29      1654.69      1931.27      2804.00      5920.51      10507.0      17788.0      51250.0     -1.00000
      793.000      917.000      57.2573      80.3271      86.5919      98.6629      125.399      207.073      268.911      434.570      490.263      1239.91      1756.85      2026.47      2686.72      5696.94      10599.3      17808.4      51531.1     -1.00000
      142.000      570.000      51.4362      53.9262      68.6635      95.5356      95.9025      180.482      262.462      442.043      521.660      1177.70      1501.40      1771.68      2513.58      5356.24      9737.59      16692.8      51244.4     -1.00000
      555.000      592.000      55.4987      60.3395      66.4799      98.1305      90.7243      190.913      242.575      327.920      449.375      1175.56      1155.27      1376.64      2464.27      5369.47      9990.34      17014.0      51216.3     -1.00000
      302.000      331.000      46.6716      38.8893      54.4173      83.6848      100.226      184.164      257.131      433.874      482.331      1264.71      1520.76      1784.59      2597.97      5561.11      10125.8      17092.0      50651.0     -1.00000
      58.0000      90.0000      26.5522      24.2193      40.6376      67.8938      91.7686      194.254      258.991      500.417      551.482      1334.14      1857.77      2157.91      2862.40      6025.03      10629.8      17946.3      50058.0     -1.00000
      767.000      3.00000      4.79058      8.67559      37.8427      45.2515      52.2338      160.407      172.489      387.713      406.199      1044.57      1267.93      1525.43      2221.11      4575.72      8267.95      13763.5      41939.1     -1.00000
      821.000      611.000      62.0130      48.0466      57.9239      95.5977      114.115      192.388      248.702      499.831      481.160      1138.41      1450.15      2080.57      2481.22      5075.91      9313.70      16028.1      48900.6     -1.00000
      910.000      744.000      62.7366      59.8200      81.8078      97.9715      120.552      191.770      262.389      387.664      481.184      1188.25      1487.58      1740.40      2549.49      5479.37      9919.95      16838.6      48889.2     -1.00000
      288.000      310.000      41.3871      33.6010      57.0371      92.3443      96.3304      237.850      285.320      551.140      614.822      1611.04      1797.28      2187.19      3088.65      7215.86      11821.8      21137.8      48326.7     -1.00000
      640.000      561.000      47.2779      58.8677      58.5177      95.6518      142.037      219.961      282.801      705.908      563.661      1397.94      2650.79      2927.83      3206.57      6524.43      11686.2      19653.1      47760.3     -1.00000
      678.000      265.000      32.5317      52.2850      54.5270      93.8010      86.9319      183.438      240.389      402.738      517.706      1267.62      1493.66      1755.86      2583.69      5658.03      9855.18      16863.1      46607.1     -1.00000
      617.000      409.000      39.4486      53.6347      56.8636      69.4295      95.2049      180.947      266.439      436.179      511.469      1205.56      1523.02      1818.72      2658.02      5515.93      9955.05      16696.4      46633.1     -1.00000
      805.000      354.000      52.9045      42.1259      50.5220      89.3518      89.9437      153.831      228.333      445.544      473.615      1193.70      1479.30      1681.51      2495.98      5203.58      9373.00      15871.1      46059.6     -1.00000
      831.000      490.000      48.4214      45.4198      62.5034      74.7439      89.6606      204.156      230.154      387.682      472.031      1150.61      1412.98      1676.92      2459.26      5049.24      9132.13      15634.3      46044.1     -1.00000
      232.000      805.000      64.9035      82.2407      88.3579      113.959      114.281      218.392      269.988      434.153      515.706      1211.49      1492.33      1732.86      2517.93      5416.56      9707.62      16375.8      46040.0     -1.00000
      409.000      119.000      19.9199      25.9252      34.0726      35.8369      48.8126      176.672      235.026      158.956      491.801      1230.18      1204.92      1206.26      2539.31      4554.69      9692.97      15568.9      45465.5     -1.00000
      538.000      183.000      30.9483      38.1620      53.0005      87.8077      103.401      192.506      268.439      455.437      547.268      1300.17      1633.92      1850.53      2692.56      5596.34      9951.86      16880.7      45468.8     -1.00000
      458.000      57.0000      18.6040      27.8315      39.3547      51.2043      130.086      176.282      253.129      855.066      545.704      1361.52      2961.60      3739.12      2822.99      5888.32      10465.6      17467.8      45052.5     -1.00000
      521.000      69.0000      17.5717      18.8876      44.9570      64.2573      68.7470      159.739      244.484      426.463      483.742      1364.59      1637.32      1928.79      2611.27      5444.75      9754.06      16305.9      44921.3     -1.00000
      617.000      739.000      61.1548      68.2063      59.3719      98.6383      115.399      180.402      234.937      446.027      471.455      1092.89      1372.27      1554.15      2269.21      4917.10      8919.04      15060.8      44650.7     -1.00000
      72.0000      510.000      44.4759      55.7483      77.5134      96.5887      40.7316      170.597      250.687      113.280      509.809      1248.10      208.094      214.189      2671.22      5581.18      9877.21      16248.9      44387.0     -1.00000
      549.000      47.0000      4.93314      19.0723      31.4366      63.4069      58.4272      154.968      214.374      383.542      442.259      1115.92      1376.72      1620.43      2357.65      4945.31      8787.29      15014.1      43854.7     -1.00000
      51.0000      722.000      59.8147      71.1402      84.0778      86.6298      99.7326      187.491      240.305      386.338      443.448      1086.20      1358.76      1520.99      2227.94      4697.88      8788.46      14912.4      44105.5     -1.00000
      537.000      546.000      43.0215      40.4911      60.6813      102.031      98.6470      207.415      247.382      435.285      471.016      1058.61      1366.58      1546.52      2258.78      4839.43      8513.86      14739.5      43836.5     -1.00000
      589.000      219.000      34.7721      23.2397      25.5022      61.9166      73.6091      152.935      231.847      378.563      454.466      1154.20      1384.81      1641.12      2412.91      4966.70      8928.44      15164.2      43284.6     -1.00000
      985.000      161.000      31.9013      17.0138      42.5731      68.1991      78.6212      167.313      242.499      434.194      495.836      1183.77      1488.38      1704.92      2465.21      5207.38      9220.82      15345.0      42770.0     -1.00000
      423.000      769.000      69.8041      66.8288      67.6244      100.915      95.9106      193.768      246.207      321.866      441.252      1123.41      1152.83      1397.03      2399.69      5073.41      9077.44      15593.7      42786.1     -1.00000
      472.000      143.000      16.0135      36.5547      27.1911      58.2405      67.6753      151.031      210.190      343.309      429.617      1089.30      1368.61      1575.09      2259.36      4753.15      8492.90      14440.3      42232.6     -1.00000
      193.000      369.000      36.8341      52.0678      56.7208      90.6577      75.4252      164.613      224.516      376.010      520.664      1067.13      1396.07      1512.20      2392.45      4587.55      8119.96      14120.8      42206.0     -1.00000
      212.000      672.000      69.7008      66.8938      68.9166      77.7178      98.0302      152.760      222.443      323.928      389.317      967.719      1240.94      1359.74      2017.44      4184.42      7688.74      13281.2      41113.5     -1.00000
      717.000      343.000      36.1931      39.3562      52.5098      57.9426      67.6083      150.010      204.418      320.664      417.466      997.047      1378.66      1279.57      2172.11      4482.05      8161.26      13800.7      40876.5     -1.00000
      231.000      183.000      35.3389      25.3818      38.1265      63.0256      71.2998      159.658      211.887      404.073      431.276      1094.11      1248.63      1511.35      2100.08      4469.11      8046.66      13671.6      40596.8     -1.00000
      922.000      897.000      70.9048      61.0379      73.0290      102.669      209.167      160.616      235.631      1002.04      418.612      988.444      3995.83      4628.55      2019.76      4377.14      7986.67      13764.8      40883.0     -1.00000
      248.000      727.000      60.7596      58.4275      67.9906      85.3177      90.1275      150.963      217.549      335.435      365.704      918.000      1158.57      1330.61      1923.69      4050.11      7475.81      12879.0      40594.0     -1.00000
      856.000      746.000      62.8113      61.1342      69.4924      95.8806      97.0328      163.681      218.572      328.945      393.453      990.339      1150.99      1354.51      2037.64      4233.90      7528.21      13260.4      40636.6     -1.00000
      527.000      916.000      78.4782      80.9992      75.1660      92.3237      118.083      211.682      227.643      383.247      399.445      937.007      1165.10      1372.10      2023.20      4354.26      7842.29      13664.0      40607.3     -1.00000
      685.000      951.000      83.0113      82.1153      72.0096      111.071      90.5290      212.872      250.852      314.009      478.120      1175.80      818.736      823.782      2480.34      5289.22      9598.25      15979.7      40330.2     -1.00000
      885.000      589.000      45.4160      45.0715      63.1475      65.2020      83.1037      167.311      213.809      384.685      448.013      1033.78      1288.28      1533.88      2223.90      4814.60      8626.15      14713.3      40115.8     -1.00000
      553.000      979.000      68.4663      82.2216      80.2493      89.0286      105.140      179.829      230.444      385.858      411.307      955.822      1179.49      1369.03      2053.89      4260.80      7831.93      13541.5      40090.8     -1.00000
      1019.00      474.000      36.0784      51.9247      56.9684      78.3293      181.066      130.094      181.295      821.663      364.650      934.604      4364.59      5185.30      2060.88      4327.19      7863.68      13386.8      39545.9     -1.00000
      518.000      80.0000      1.74121      9.19541      27.5819      32.6716      56.0381      137.305      189.553      321.418      392.100      991.816      1241.57      1394.70      2059.45      4347.48      7830.90      13308.4      39315.0     -1.00000
      173.000      739.000      66.2448      68.2063      85.0540      97.9867      114.798      181.671      224.641      413.790      454.562      1031.57      1380.77      1596.40      2208.67      4511.68      8147.61      13754.1      39581.8     -1.00000
      141.000      917.000      78.1459      80.3271      99.4330      122.655      126.938      237.343      289.265      434.570      522.323      1277.32      1367.13      1808.34      2582.68      5364.57      9492.59      15561.0      39299.1     -1.00000
      450.000      453.000      43.8318      46.9920      57.4592      61.8665      80.3778      127.308      195.555      386.489      399.830      937.798      1172.12      1387.50      2018.92      4166.11      7512.16      12754.4      39029.0     -1.00000
      155.000      734.000      63.5913      66.9163      77.7548      82.4801      92.9680      151.400      207.623      386.579      427.162      921.625      1245.67      1426.44      1994.85      4130.32      7479.26      12940.8      39038.2     -1.00000
      1012.00      148.000      19.2121      17.0239      33.5786      51.3006      55.0173      128.263      185.210      322.809      373.386      955.875      1125.00      1269.28      2032.70      4302.84      7707.02      13245.5      38765.1     -1.00000
      0.00000      121.000     -311.874     -286.887     -278.281     -229.735     -221.777     -114.077     -33.9069      102.511      241.555      987.285      1126.47      1299.45      2349.49      4946.92      8897.04      14400.9      38522.5     -1.00000
      457.000      908.000      58.4022      65.5510      79.9765      108.677      117.578      204.015      245.551      385.709      394.836      938.573      1144.75      1383.98      1971.05      4227.54      7651.46      13099.8      38003.8     -1.00000
      1.00000      244.000     -236.248     -247.057     -233.038     -180.327     -176.541     -117.880     -61.8483      104.226      139.183      684.949      912.779      1092.24      1681.23      3812.43      7037.64      12116.5      37481.8     -1.00000
      107.000      866.000      73.4942      68.9910      85.7454      108.748      108.120      188.424      223.865      347.152      389.128      907.658      1124.51      1261.43      1932.87      3954.21      7137.07      12255.4      37485.7     -1.00000
      599.000      451.000      33.2819      38.1544      35.7145      38.2703      37.3433      45.2772      51.1613      106.078      61.1846      115.031      141.612      138.973      169.209      247.254      272.145      362.612      37228.2     -1.00000
      849.000      130.000      11.5031      22.1128      42.8996      41.8047      57.3167      108.803      171.240      321.266      358.854      895.754      1129.93      1316.57      1952.12      4045.00      7170.53      12468.2      36957.1     -1.00000
      101.000      264.000      34.3259      42.6166      51.1825      88.4590      59.8018      151.060      178.488      205.588      372.279      937.832      1173.77      746.677      1932.62      3876.28      7132.31      12151.7      36999.7     -1.00000
      227.000      743.000      51.3427      74.2179      75.4219      90.6154      96.5125      168.014      201.847      323.445      367.331      883.182      1120.43      1267.91      1864.80      3948.34      6960.72      12100.0      37483.9     -1.00000
      953.000      511.000      42.8183      34.6577      50.8187      67.9941      69.2014      128.677      181.146      331.547      378.336      906.924      1167.86      1347.21      1905.48      3949.21      7337.67      12568.7      36481.0     -1.00000
      849.000      174.000      17.9838      36.7236      44.9809      59.9754      65.0606      169.571      182.617      320.175      364.081      932.487      1144.54      1372.72      1992.81      4720.52      7219.10      12542.6      36246.8     -1.00000
      98.0000      88.0000      31.1860      34.1549      29.9655      27.9417      34.0232      51.0228      49.9528      102.342      80.3410      119.968      185.050      175.155      210.394      298.240      385.458      752.430      35983.1     -1.00000
      421.000      945.000      76.7405      81.1217      74.7370      96.3863      113.290      151.156      196.394      321.176      356.696      792.598      1005.35      1285.74      1662.31      3469.88      6139.37      10516.2      36249.2     -1.00000
      152.000      79.0000      19.3697      14.7794      40.0555      49.4394      56.2916      131.418      177.551      319.791      366.800      930.146      1126.96      1284.46      1865.97      3884.75      7033.27      11933.9      35479.8     -1.00000
      221.000      117.000      12.5637      2.92917      10.0123      28.4709      53.8323      20.5857      39.8010      300.383      49.0449      143.839      1001.97      1188.25      164.255      264.877      330.419      438.512      710.129     -1.00000
      183.000      431.000      46.8363      33.4580      48.3613      96.9187      80.4483      143.719      214.439      326.419      372.318      920.082      1143.72      1361.46      1989.84      4113.94      7402.52      12308.8      35485.2     -1.00000
      359.000      626.000      67.8913      54.2716      62.5654      75.9905      85.7169      129.079      162.977      295.176      308.640      753.935      917.835      1089.13      1510.20      3180.63      5685.90      9709.19      29561.8     -1.00000
      787.000      499.000      35.6839      41.6890      48.2206      81.1303      87.5166      153.410      189.213      321.738      328.684      819.381      1036.75      1218.61      1799.73      3705.48      6762.71      11632.2      35017.4     -1.00000
      173.000      791.000      65.1862      60.0100      69.9882      88.2488      67.1155      154.804      207.267      195.702      377.200      922.181      460.035      560.804      1937.74      4019.49      7285.78      12224.1      35022.4     -1.00000
      363.000      721.000      53.3600      69.7191      73.6315      79.4111      96.8598      162.697      204.454      322.223      364.711      837.088      1033.63      1243.31      1787.21      3735.43      6822.39      11573.1      34996.5     -1.00000
      831.000      514.000      53.3778      48.0059      59.3836      83.5413      62.5725      151.897      168.809      275.457      308.760      758.204      916.163      1054.92      1518.05      3233.10      5816.75      9849.00      34753.5     -1.00000
      658.000      48.0000      16.5906      16.2686      19.8445      35.0796      56.1335      113.843      157.008      319.395      343.631      836.806      1051.22      1234.37      1810.78      3751.49      6690.28      11435.5      34512.2     -1.00000
      834.000      272.000      27.6090      39.2101      35.9917      63.8141      63.4088      157.703      192.113      389.407      431.784      1033.39      1261.28      1531.92      2194.07      4743.15      8440.76      14287.3      34554.1     -1.00000
      108.000      721.000      62.6349      69.2555      70.0555      88.8137      100.408      166.160      204.945      386.428      395.009      932.103      1128.84      1293.76      1878.02      3908.86      7156.27      11839.1      34510.0     -1.00000
      505.000      984.000      78.3020      76.7664      90.5638      71.6613      98.9862      153.658      192.198      321.533      325.335      793.050      1005.91      1141.90      1645.39      3610.02      6461.89      11392.3      34555.0     -1.00000
      875.000      570.000      38.5951      47.7838      88.2024      106.964      638.880      247.890      354.904      3215.71      707.720      1720.18      11852.3      18616.1      3631.36      7635.72      14429.0      24389.5      34404.5     -1.00000
      160.000      91.0000      17.3215      19.4076      21.9325      39.9394      56.8452      115.082      176.565      318.376      362.548      914.941      1120.43      1363.71      1907.65      3873.25      6935.35      11634.7      34021.9     -1.00000
      995.000      108.000      22.3536      18.5377      25.7969      32.5750      47.9087      111.289      140.114      265.947      292.694      727.587      925.187      1047.29      1566.26      3187.84      5745.70      9643.44      34025.2     -1.00000
      581.000      381.000      35.0049      26.8946      49.7073      67.6736      64.0550      129.417      155.835      303.420      333.779      816.185      1007.68      1174.27      1750.82      3602.15      6503.59      11073.5      34290.4     -1.00000
      342.000      743.000      62.6470      64.1367      69.0014      88.8707      85.2775      156.058      192.594      343.055      384.515      861.546      1038.86      1228.88      1773.99      3766.41      6809.37      11571.0      34031.2     -1.00000
      375.000      287.000      26.8828      54.6561      50.5544      66.0723      319.638      143.221      193.555      1934.75      403.739      937.598      5761.86      8839.71      1963.91      4222.15      7288.09      12244.4      33782.8     -1.00000
      514.000      851.000      57.9606      53.6988      59.2445      84.2976      105.427      137.677      190.769      322.144      337.487      754.219      1252.69      1471.90      1607.24      3419.67      6357.94      10854.2      33798.9     -1.00000
      528.000      984.000      75.9828      63.9253      93.2312      96.9930      95.7476      166.772      190.857      281.585      317.680      721.707      1282.01      988.939      1453.52      3062.60      5469.49      9394.66      33801.0     -1.00000
      792.000      609.000      45.9226      53.0592      51.6466      62.2264      67.4483      150.040      185.551      315.917      374.828      885.125      1001.57      1171.05      1811.87      3651.01      6662.96      11330.1      33548.9     -1.00000
      19.0000      246.000      19.1780      19.3894      23.2686      46.8025      57.6127      130.049      176.114      331.420      359.427      871.216      1120.61      1243.13      1812.34      3790.22      6784.24      11187.7      33054.4     -1.00000
      667.000      19.0000      11.8907      6.82188      23.1250      47.9466      59.6035      112.958      156.240      295.184      325.610      791.589      1029.86      1219.08      1681.61      3556.59      6294.85      10816.3      32851.6     -1.00000
      614.000      50.0000      17.2775      10.1162      18.8811      37.5338      50.2174      121.041      161.633      268.140      335.779      810.035      1017.54      1200.88      1702.16      3549.17      6523.43      10849.6      32599.7     -1.00000
      775.000      154.000      26.6821      25.4392      27.0189      50.6941      55.7317      126.196      169.329      377.255      392.499      912.522      1248.32      1463.79      1956.07      4065.29      7306.35      12456.7      32606.0     -1.00000
      269.000      311.000      32.1539      48.9715      38.8425      55.6681      76.4725      147.897      199.918      283.132      366.254      917.405      1239.16      1333.94      1846.04      3849.23      6858.80      11496.3      32602.1     -1.00000
      505.000      399.000      27.0789      41.8704      45.5928      65.1499      73.5721      141.382      170.304      333.883      359.129      856.289      1006.78      1168.92      1697.18      3534.51      6405.66      10772.0      32581.3     -1.00000
      181.000      823.000      65.4114      60.0183      66.6108      110.407      98.0819      144.437      179.685      319.333      332.086      701.046      910.968      1015.46      1484.24      3026.54      5350.34      9196.97      27800.8     -1.00000
      993.000      992.000      67.7763      69.6214      77.4428      92.4288      92.2813      152.915      177.394      318.119      335.001      804.875      998.868      1118.56      1672.31      3447.57      6299.25      10719.1      32087.3     -1.00000
      672.000      170.000      18.9229      25.6565      26.9285      50.0690      54.1197      141.201      145.521      279.256      300.992      756.225      1027.39      1207.28      1707.58      3533.91      6336.94      10585.8      31633.9     -1.00000
      335.000      790.000      76.3081      65.4641      64.7023      94.3522      108.403      153.737      175.308      382.912      351.876      788.019      1450.61      1637.99      1505.71      3322.84      6045.71      10493.8      31390.2     -1.00000
      323.000      369.000      49.6752      34.4415      36.7167      60.3877      68.3121      152.180      161.741      309.262      334.788      764.429      960.792      1088.42      1617.64      3317.73      6009.07      10285.6      31174.5     -1.00000
      1019.00      93.0000      12.2954      3.93212      36.8053      33.3782      53.5400      119.214      155.258      310.248      329.038      794.929      999.642      1147.29      1667.87      3448.87      6286.08      10453.5      30936.4     -1.00000
      171.000      712.000      54.4699      51.1464      63.8861      77.4467      87.4570      148.925      180.121      322.835      331.193      802.012      998.005      1143.92      1647.23      3440.04      6065.28      10272.5      30949.4     -1.00000
      541.000      1002.00      85.2594      73.6084      72.1923      56.1440      106.228      78.2674      79.1615      316.572      87.7991      130.907      1038.48      1300.35      181.765      237.026      317.124      350.300      396.072     -1.00000
      239.000      265.000      32.5317      39.4439      38.5712      63.5310      57.6132      122.898      149.512      287.168      305.816      756.905      927.294      1087.71      1543.25      3328.57      5902.84      10190.2      30742.0     -1.00000
      651.000      854.000      88.6232      83.2969      73.4187      94.4390      102.899      143.932      183.722      318.948      332.874      771.653      964.992      1133.87      1588.69      3317.44      5950.32      10224.4      30722.4     -1.00000
      323.000      483.000      41.7264      47.5538      53.2060      66.9972      80.6640      123.139      152.557      272.543      299.107      766.857      924.990      1066.69      1511.65      3225.21      5829.20      9916.87      30718.2     -1.00000
      1015.00      571.000      57.8904      38.8006      66.8975      66.7853      99.0190      160.650      210.167      436.395      405.576      967.259      1766.48      2009.25      1993.73      4278.03      7877.75      13524.0      30484.1     -1.00000
      773.000      644.000      54.0450      49.0705      62.8600      62.1787      82.0065      115.034      157.685      311.757      308.484      704.036      915.140      1210.57      1555.53      3048.99      5583.39      9741.01      30257.4     -1.00000
      465.000      723.000      36.2897      69.3959      44.0148      56.0591      41.7571      43.2555      81.6723      110.913      95.0438      138.489      282.366      183.664      228.204      314.366      379.309      546.912      30301.5     -1.00000
      487.000      203.000      18.8455      29.5082      44.0178      57.3559      61.8324      127.864      154.328      328.275      303.211      727.028      1018.47      1151.08      1524.06      3137.17      5569.87      9592.76      491.136     -1.00000
      939.000      835.000      56.1198      66.4723      58.8461      81.3432      81.3296      132.389      171.033      311.207      313.788      701.883      878.367      996.629      1472.74      3169.12      5897.08      9923.59      30267.0     -1.00000
      170.000      904.000      66.3964      70.7703      82.5716      95.6607      97.7553      155.924      164.167      321.170      336.312      761.679      920.578      1072.98      1574.88      3295.65      5994.05      9977.49      30248.0     -1.00000
      287.000      844.000      51.9058      60.2365      68.8326      94.3553      88.7823      147.751      174.072      322.838      299.016      683.146      925.010      1081.33      1370.48      2886.19      5204.44      8847.11      26699.9     -1.00000
      916.000      390.000      33.9152      39.5475      41.3154      56.4532      59.4990      124.923      154.989      306.982      303.541      752.725      915.556      1060.87      1514.79      3194.87      5731.46      9826.75      29790.6     -1.00000
      714.000      408.000      29.9507      44.0363      45.7331      54.9994      63.2531      121.757      159.753      269.178      328.856      762.844      934.580      1078.29      1594.71      3266.84      5868.92      9950.89      29793.9     -1.00000
      202.000      458.000      46.9745      58.2937      56.5122      54.2581      85.3067      124.864      183.257      270.883      319.983      729.797      914.270      1020.16      1510.51      3195.63      5771.06      9725.44      29801.9     -1.00000
      28.0000      146.000      22.2635      36.6821      20.8760      45.0587      62.9063      134.416      149.278      271.191      301.913      719.158      911.430      1033.61      1488.51      3156.93      5635.22      9554.17      29786.6     -1.00000
      249.000      445.000      39.0504      49.1359      52.8961      60.6384      61.2410      120.585      149.158      208.667      309.703      801.405      702.528      789.487      1634.28      3407.23      6053.88      10167.6      29584.9     -1.00000
      632.000      490.000      37.0038      45.4198      48.0143      67.9638      70.4904      113.346      141.175      207.908      258.500      582.341      753.004      832.604      1187.92      2416.66      4412.66      7364.60      22145.0     -1.00000
      581.000      78.0000      7.34007      6.06147      25.3199      36.3323      52.7650      99.0027      147.742      268.344      301.873      722.347      917.115      1049.92      1528.81      3223.01      5795.63      9688.52      29336.2     -1.00000
      1014.00      129.000      21.5535      18.8006      4.88485      42.5991      50.9027      112.366      133.121      269.705      299.033      706.412      926.442      1034.24      1500.97      3226.49      5780.76      9736.57      29332.2     -1.00000
      277.000      304.000      43.3703      40.6097      33.4243      68.2161      58.4200      125.729      166.749      269.167      296.457      683.923      906.666      983.569      1356.27      2736.46      4843.99      8234.56      24189.0     -1.00000
      621.000      303.000      46.0963      33.5190      52.8745      70.3965      76.2787      125.881      175.142      320.586      326.689      774.598      958.122      1085.23      1567.08      3272.59      5822.07      9843.76      28884.8     -1.00000
      739.000      354.000      40.5118      42.1259      40.0527      61.7512      62.0035      103.904      149.336      271.947      288.254      719.949      846.244      993.657      1420.98      3054.74      5338.05      9115.99      28424.4     -1.00000
      291.000      654.000      49.7519      57.1615      62.7320      71.2686      77.4456      147.359      186.801      282.027      344.885      842.224      1006.68      1132.88      1731.97      3556.03      6326.37      10565.3      28445.0     -1.00000
      166.000      463.000      40.1274      51.8936      54.7734      50.7653      65.7606      120.712      153.418      272.591      297.196      729.240      840.408      997.557      1420.75      2943.92      5372.80      9191.91      28459.0     -1.00000
      594.000      443.000      33.8478      44.9186      46.9366      69.5183      186.195      132.301      178.552      979.024      354.142      831.606      3997.83      4694.52      1688.45      3486.77      6332.18      10791.6      28103.4     -1.00000
      708.000      985.000      88.5492      63.8273      79.6896      75.3736      100.710      124.837      144.112      385.699      224.323      508.385      1162.78      1330.97      1001.14      1947.47      3528.18      5919.54      28242.6     -1.00000
      867.000      792.000      60.4502      68.0302      66.0209      90.7105      88.2318      151.282      159.656      285.048      308.663      727.338      820.837      878.934      1451.37      3048.48      5404.50      9082.36      471.173     -1.00000
      68.0000      9.00000      12.6617      6.95838      26.4492      29.3033      35.5414      75.3063      119.802      251.080      257.309      642.884      923.449      1028.05      1332.20      2752.48      5048.57      8258.17      27129.1     -1.00000
      506.000      432.000      34.2112      51.7257      46.9849      71.3111      67.3426      143.266      152.323      213.970      318.663      759.895      914.256      1067.66      1476.58      3114.63      5608.59      9553.69      28005.6     -1.00000
      624.000      432.000      25.5614      51.7257      61.4543      71.3694      67.3426      126.270      169.682      278.175      312.507      759.895      944.246      1089.62      1597.62      3205.14      5668.83      9590.55      28003.2     -1.00000
      351.000      658.000      51.1085      60.7742      67.5569      77.8110      86.1767      130.494      166.696      269.812      283.287      699.003      840.729      977.566      1445.75      2956.08      5377.94      9246.67      28026.4     -1.00000
      754.000      583.000      39.5583      58.0003      61.6374      63.1632      70.8368      132.299      154.250      272.999      272.246      706.265      912.604      1001.12      1478.14      3006.69      5560.20      9494.62      28003.2     -1.00000
      308.000      315.000      41.5868      37.1570      29.3532      45.1454      60.7341      117.280      133.451      268.197      274.204      623.352      791.776      900.004      1256.50      2661.43      4863.56      8192.90      25007.9     -1.00000
      738.000      965.000      74.4890      71.2470      75.3918      92.8599      100.819      143.244      182.432      320.778      346.215      762.421      922.487      1053.56      1509.92      3151.65      5725.19      9441.91      27795.1     -1.00000
      70.0000      198.000      36.1279      39.9662      47.4281      55.3242      50.6173      93.9831      149.163      304.574      305.313      753.604      915.115      1074.49      1572.92      3260.24      5709.72      9536.33      27559.7     -1.00000
      386.000      432.000      38.4024      38.8847      53.4055      71.3111      68.4843      120.658      161.078      278.175      310.155      710.000      922.354      1019.85      1446.27      2936.86      5367.04      9194.32      27563.5     -1.00000
      682.000      181.000      16.2668      26.2810      23.3938      56.8092      53.2550      104.806      145.559      318.815      296.682      761.734      915.529      1097.33      1541.44      3123.35      5586.02      9452.98      27333.7     -1.00000
      220.000      502.000      51.5736      47.9022      47.4476      62.0125      81.6012      144.368      178.463      333.305      296.849      697.312      909.102      996.922      1419.77      2919.61      5383.19      9047.19      27356.0     -1.00000
      352.000      75.0000      15.6996      22.3429      15.0463      37.5940      21.6864      91.8615      129.133      79.2345      277.570      651.726      199.411      224.038      1415.13      2915.61      5076.11      8647.67      585.095     -1.00000
      717.000      275.000      26.3220      37.9168      29.7235      61.2155      56.8411      127.242      146.994      268.674      304.104      670.804      909.651      1002.30      1389.51      2919.82      5277.22      9005.52      27560.5     -1.00000
      131.000      238.000      29.4810      40.1836      47.5358      79.2024      78.5140      149.841      171.956      321.143      337.413      759.963      926.669      1112.15      1615.12      3296.93      5788.10      9546.78      27126.1     -1.00000
      599.000      453.000      49.8156      59.8331      65.8779      65.1118      83.2711      87.5819      118.480      155.351      135.601      244.007      275.733      289.263      371.283      508.231      672.657      788.226      27136.6     -1.00000
      71.0000      607.000      65.1353      56.6477      67.9625      86.1580      91.0606      161.820      184.243      319.126      326.276      692.482      908.339      987.341      1413.05      2937.77      5359.75      9004.72      27167.7     -1.00000
      244.000      689.000      64.2488      66.0564      73.3793      74.5744      74.5295      131.799      165.508      278.470      309.299      740.004      911.910      1013.78      1462.81      2941.25      5519.08      9102.47      27164.8     -1.00000
      202.000      885.000      62.3256      70.5661      72.2720      92.7384      100.599      161.883      186.718      269.288      330.104      727.688      1054.24      1228.32      1483.97      3067.87      5615.23      9688.47      27162.2     -1.00000
      16.0000      636.000      41.2548      48.3589      58.7187      65.0068      54.0900      130.731      160.238      269.330      297.910      696.542      844.649      972.517      1428.74      3081.49      5373.14      9091.40      26932.7     -1.00000
      1001.00      147.000      9.94630      10.6780      34.1495      49.0642      42.2497      114.791      172.916      321.292      305.031      776.332      997.295      1143.69      1027.59      2103.65      6001.60      11156.8      26762.4     -1.00000
      589.000      231.000      32.5516      25.9352      40.5639      43.0897      49.8591      99.5385      153.068      269.374      270.932      687.989      838.768      994.152      1446.16      2929.65      5319.54      8890.56      27163.5     -1.00000
      209.000      45.0000      16.6296      18.9829      28.7530      31.3625      39.6919      103.716      153.053      267.965      308.475      754.574      950.951      1076.86      1564.68      3193.70      5666.55      9495.58      26716.4     -1.00000
      818.000      88.0000      23.7689      17.3096      10.7039      40.3748      41.3931      111.563      150.145      270.456      292.231      755.355      911.530      839.028      1506.28      3085.60      5490.35      9224.82      26722.7     -1.00000
      793.000      30.0000      9.13837      13.7082      13.1745      26.4694      35.2775      85.3669      115.205      207.126      264.140      659.724      809.617      895.348      1348.16      2841.17      5136.65      8844.17      26705.1     -1.00000
      304.000      124.000      16.3983      32.4168      24.2666      61.6095      58.3983      118.985      153.782      269.535      299.029      692.229      907.177      1027.91      1445.16      3036.94      5351.23      9053.86      26702.6     -1.00000
      516.000      76.0000      12.9957      24.8200      18.0209      42.9127      38.9969      94.8138      138.951      268.188      275.160      645.470      812.453      975.207      1398.14      2804.38      5044.83      8578.65      26701.5     -1.00000
      46.0000      828.000      69.8786      63.9345      67.3509      75.4069      95.4737      130.931      152.585      294.798      272.666      664.985      791.283      893.726      1316.90      2675.55      4823.28      8330.52      25427.1     -1.00000
      34.0000      970.000      71.1449      76.3896      79.6983      93.9014      97.6571      143.450      158.047      269.877      300.318      717.018      909.608      994.148      1360.38      2947.17      5269.71      8904.53      26488.1     -1.00000
      930.000      593.000      53.2663      39.6767      48.0475      60.3822      65.2838      118.225      150.075      268.817      270.644      630.009      820.843      888.747      1330.93      3706.92      4723.33      8053.98      26277.8     -1.00000
      71.0000      45.0000      27.7012      12.9990      27.4913      28.7537      34.7427      99.7507      131.977      225.631      278.205      666.192      813.810      968.831      1419.48      2943.45      5257.39      8816.63      26700.9     -1.00000
      559.000      166.000      36.9923      16.5647      40.7162      49.4107      67.8223      112.284      147.000      320.640      284.668      727.706      909.810      1038.06      1409.58      2898.84      5194.72      8814.71      26079.8     -1.00000
      862.000      953.000      71.4950      76.1022      80.5388      91.0023      88.0425      123.588      162.714      318.249      271.288      631.961      813.623      912.895      1268.89      2712.20      4788.85      8343.58      26081.1     -1.00000
      59.0000      683.000      63.7708      59.6802      72.7783      81.3616      71.1962      125.644      159.158      206.940      291.281      647.584      821.663      965.088      1418.96      2944.42      5145.04      8786.28      25870.3     -1.00000
      37.0000      646.000      39.7572      57.7876      59.1332      52.7561      53.7882      66.3447      61.8324      103.014      84.0966      119.121      122.879      140.263      154.864      235.210      276.159      325.935      25855.6     -1.00000
      112.000      879.000      60.1711      83.7273      76.8801      70.1890      82.4418      120.800      152.471      223.687      317.335      669.262      721.596      737.894      1315.42      3006.70      4743.36      8113.01      25654.4     -1.00000
      800.000      26.0000      11.1590      17.1336      17.3914      51.2276      48.5769      117.263      150.808      279.013      289.638      679.557      795.868      940.059      1339.77      2774.22      5013.51      8501.70      25854.6     -1.00000
      190.000      695.000      46.8957      57.9226      68.3975      87.7559      83.5255      136.786      164.407      269.367      282.372      638.926      807.930      929.693      1348.07      2876.34      5020.90      8517.60      25458.3     -1.00000
      29.0000      725.000      46.6195      59.9648      64.2034      82.7039      82.5151      136.298      153.086      264.428      278.071      687.441      802.345      925.818      1324.28      2779.41      5172.13      8592.98      25434.0     -1.00000
      604.000      65.0000      35.3721      34.8036      34.1980      59.5460      65.5641      234.863      299.388      384.687      382.013      1727.24      1386.32      1623.53      3717.23      7768.24      13951.3      12473.8      25003.7     -1.00000
      962.000      436.000      31.8101      34.3676      63.4123      70.1321      58.5793      122.058      153.373      290.649      272.431      673.056      800.729      918.225      1272.25      2694.88      4980.39      8364.81      25002.4     -1.00000
      918.000      625.000      42.4671      69.9829      68.2729      66.3108      77.5087      128.192      166.086      270.934      298.871      662.419      811.092      931.464      1356.67      2743.98      4927.04      8434.97      25046.1     -1.00000
      540.000      253.000      17.7359      21.3279      41.3753      39.7759      47.8563      96.7409      127.613      272.200      235.831      541.042      843.519      988.981      1081.62      2187.02      3821.04      6509.52      24836.3     -1.00000
      675.000      598.000      57.8014      56.1280      65.2147      78.0497      126.077      128.324      180.945      657.086      335.933      818.441      2373.92      2883.22      1753.15      3676.76      6615.18      11112.9      24826.7     -1.00000
      248.000      547.000      52.0339      46.3836      57.6260      62.7866      103.539      123.282      155.454      385.553      293.395      637.789      1261.08      1435.67      1271.95      2566.77      4648.50      7857.70      24584.8     -1.00000
      245.000      767.000      52.3370      66.6944      70.3500      89.0098      88.9915      127.116      171.857      273.095      305.135      700.161      910.733      998.550      1390.62      2899.76      5114.42      8609.44      24587.3     -1.00000
      536.000      255.000      33.6750      30.8442      30.0394      37.1440      61.0570      111.067      140.839      269.591      270.968      643.917      809.153      917.101      1327.87      2694.81      4757.65      8029.61      24591.0     -1.00000
      288.000      941.000      69.5892      71.2549      76.2229      86.6742      64.8126      124.784      155.693      98.6079      256.635      619.164      789.197      151.796      1230.11      2506.64      4535.61      7747.42      24386.5     -1.00000
      781.000      991.000      71.3666      77.2260      90.4885      81.0552      83.5362      125.175      163.306      202.685      251.112      566.170      616.257      570.472      1157.34      2352.99      4105.40      7053.80      24389.7     -1.00000
      207.000      496.000      39.6457      68.9808      52.4606      68.5037      65.1214      120.191      157.837      271.195      279.266      643.445      806.721      954.684      1347.56      2728.67      4882.44      8321.42      24179.3     -1.00000
      690.000      528.000      47.8234      41.5072      37.2422      64.6410      79.0557      113.619      137.528      276.447      280.737      627.753      998.622      1116.85      1303.31      2610.55      4605.76      7610.75      24174.0     -1.00000
      101.000      261.000      33.6396      29.8777      40.6760      51.1905      54.4917      97.5496      131.278      219.832      252.599      612.600      790.690      877.327      1278.92      2571.86      4680.98      8010.72      23765.5     -1.00000
      870.000      456.000      32.3400      39.4990      39.6602      70.2237      63.2514      120.968      156.004      155.333      294.003      712.117      720.251      839.511      1410.38      2907.18      5128.47      8657.33      23798.2     -1.00000
      286.000      92.0000      20.0169      8.59444      19.4002      53.8192      27.1770      97.0418      140.291      132.188      296.837      611.191      280.821      300.912      1530.56      2793.87      5591.18      7395.71      24180.8     -1.00000
      118.000      429.000      38.9561      44.5986      52.4422      68.0482      61.8937      94.7604      146.765      207.688      276.475      642.224      786.944      866.845      1211.23      2545.87      4573.33      7766.22      23769.8     -1.00000
      689.000      808.000      71.6806      83.5622      61.6746      76.5305      73.6754      72.0045      104.526      170.646      128.621      242.015      276.472      278.517      320.269      449.449      621.282      802.496      23563.6     -1.00000
      15.0000      659.000      52.7094      37.9272      58.0750      66.4464      68.1889      118.803      148.694      269.787      252.320      606.814      811.745      913.679      1250.06      2538.08      4548.11      7817.00      23782.9     -1.00000
      666.000      289.000      27.2084      11.2447      23.9586      37.5876      59.2523      30.1435      37.4352      210.212      67.7174      124.335      792.876      818.744      201.037      247.834      323.192      379.411      476.290     -1.00000
      506.000      799.000      54.9083      78.5096      60.6941      71.7019      96.5481      124.575      154.650      279.107      281.829      626.735      831.569      974.772      1262.51      2693.29      5096.31      8225.35      23368.8     -1.00000
      58.0000      849.000      72.3681      60.6939      71.9214      79.4723      84.8251      130.904      150.509      270.980      295.365      631.949      791.104      867.968      1275.36      2604.59      4776.94      7925.97      23357.1     -1.00000
      911.000      379.000      24.6612      38.5429      38.5821      45.2785      61.7254      102.942      129.115      258.315      267.187      634.422      807.618      869.368      1289.43      2641.08      4608.32      7824.48      23163.8     -1.00000
      318.000      710.000      48.9539      52.9522      68.6301      59.0417      214.408      154.364      160.639      1041.92      271.416      676.413      4001.00      4794.99      1382.96      2283.61      5092.22      8583.15      23160.1     -1.00000
      151.000      458.000      39.3109      60.1807      56.8508      64.8515      57.8197      123.467      132.429      206.678      264.717      607.337      786.485      842.039      1268.35      2594.18      4508.08      7696.96      23344.6     -1.00000
      931.000      798.000      45.2884      57.2590      60.7026      60.4910      91.0370      131.745      146.281      324.492      269.808      634.787      1001.19      1153.16      1261.96      2635.46      4678.41      7987.07      23578.3     -1.00000
      811.000      213.000      25.7319      27.2452      29.0963      54.6414      52.1540      96.0842      127.502      193.630      240.477      599.417      719.078      832.783      1241.76      2592.43      4520.02      7699.38      23336.8     -1.00000
      371.000      413.000      40.0826      50.3611      56.2175      60.5020      62.0388      90.0225      143.586      269.515      277.670      655.959      790.041      907.100      1330.60      2623.66      4691.76      7767.74      22956.3     -1.00000
      301.000      102.000      15.0899      11.1871      24.4008      38.8225      40.4342      97.9069      118.721      205.207      238.998      578.939      784.649      848.083      1264.65      2474.69      4548.43      7519.80      23143.1     -1.00000
      131.000      625.000      46.2781      44.3009      64.9440      67.4685      90.1037      123.808      142.959      234.186      257.435      565.817      690.012      786.169      1114.51      2298.49      3988.97      6856.75      20427.4     -1.00000
      726.000      899.000      76.8859      67.5395      98.8980      113.009      107.970      153.148      194.419      300.494      343.405      716.207      799.703      886.795      1360.38      2731.32      4872.82      8121.93      22977.2     -1.00000
      570.000      31.0000      19.5906      15.1302      27.9799      28.0800      33.3316      66.8413      120.127      210.074      258.365      603.277      790.262      874.773      1271.40      2623.31      4627.61      7827.24      22764.2     -1.00000
      72.0000      267.000      29.5582      29.6845      46.0290      58.6735      61.1061      92.5477      148.832      268.592      261.154      633.795      797.308      883.536      1282.62      2579.08      4630.18      7762.22      22780.3     -1.00000
      241.000      244.000      33.4136      18.9785      36.4995      36.5939      50.2756      122.370      137.468      209.814      246.659      617.728      794.838      884.346      1266.78      2637.13      4677.49      7794.32      23337.6     -1.00000
      329.000      799.000      58.5785      64.1413      58.4494      89.2189      88.1083      112.286      152.042      214.902      268.184      596.465      710.489      831.723      1177.16      2420.86      4287.62      7304.01      22747.8     -1.00000
      353.000      935.000      72.7974      57.8398      75.3590      89.9962      91.3983      148.639      177.455      228.185      272.470      627.201      789.172      880.834      1257.86      2492.98      4565.35      7850.31      22776.2     -1.00000
      731.000      329.000      36.3827      30.5905      33.0132      36.1558      57.2538      97.4111      128.298      213.369      278.226      600.363      711.873      839.309      1199.22      2483.24      4518.23      7588.46      22568.9     -1.00000
      643.000      399.000      45.1689      38.2911      36.0242      44.5745      84.0575      89.1566      134.774      388.520      238.049      550.261      1408.80      1558.13      1150.60      2374.65      4256.80      7127.02      22567.5     -1.00000
      990.000      698.000      48.6031      61.0823      73.6774      72.8261      66.6653      122.525      152.625      213.254      281.855      623.323      788.615      870.395      1209.39      2563.21      4469.33      7707.43      22559.1     -1.00000
      670.000      920.000      61.4193      68.8733      66.8575      86.2502      72.4010      135.666      155.834      203.328      262.125      575.478      724.467      803.603      1152.01      2373.46      4142.57      7172.41      22144.6     -1.00000
      294.000      655.000      46.4059      47.4857      61.6896      62.5896      85.6853      125.724      153.715      220.894      272.890      580.398      687.832      844.465      1156.38      2421.68      4236.45      7199.05      22177.8     -1.00000
      753.000      133.000      9.94793      13.1981      29.8038      56.3583      39.9017      76.8939      128.313      271.403      261.458      567.977      784.242      869.421      1300.37      2572.96      4384.25      7697.94      22790.5     -1.00000
      164.000      877.000      68.1273      68.9730      53.1668      62.2603      85.9344      55.0917      68.9045      212.838      87.2143      117.738      575.442      899.017      162.866      248.002      263.288      346.642      384.017     -1.00000
      732.000      1008.00      70.8907      76.8823      67.4586      99.4308      83.9778      127.524      161.067      274.562      257.736      602.550      699.628      831.988      1197.73      2393.59      4325.02      7189.49      22150.0     -1.00000
      810.000      114.000      16.2263      18.5063      14.9384      37.2432      22.9066      74.9375      117.409      111.581      213.523      508.734      275.175      278.781      1130.95      2392.67      3955.46      6946.98      4012.56     -1.00000
      746.000      402.000      42.6914      34.6191      39.5804      53.2559      71.0922      109.108      138.939      268.194      269.653      589.401      693.224      826.515      1183.51      2416.76      4342.97      7271.80      22155.6     -1.00000
      987.000      345.000      22.9008      33.5566      40.7124      63.3816      62.9493      114.102      148.130      268.511      268.154      573.039      712.487      834.344      1211.76      2427.00      4418.92      7352.70      21799.7     -1.00000
      704.000      186.000      11.8828      21.3398      28.0345      22.4422      44.1606      66.0430      94.1608      267.546      195.651      414.127      579.753      950.110      831.683      1697.76      3130.52      5521.60      21761.9     -1.00000
      311.000      637.000      43.6840      61.7334      57.7781      63.2205      59.8920      101.886      143.651      205.022      239.149      571.503      668.958      764.746      1121.67      2235.37      3978.06      6965.72      21594.5     -1.00000
      445.000      869.000      67.1255      67.8870      56.7510      88.8762      79.0865      114.549      151.422      214.506      239.422      547.786      668.686      783.338      1083.62      2227.77      4072.77      6928.31      21596.3     -1.00000
      970.000      816.000      65.2821      68.3660      57.3543      49.4657      73.1192      59.9905      57.2867      237.862      67.4701      138.546      785.881      863.574      150.144      236.671      280.509      329.370      652.636     -1.00000
      281.000      681.000      46.8803      53.8941      66.2851      62.6085      67.6259      118.432      149.998      205.834      258.693      576.762      677.809      749.323      1145.14      2345.72      4180.15      7183.20      21396.9     -1.00000
      94.0000      879.000      60.1711      62.2110      72.1707      92.1050      82.4067      141.277      148.244      269.305      265.705      543.009      677.659      797.861      1103.53      2340.76      4228.47      7125.89      21377.0     -1.00000
      551.000      1003.00      70.3479      72.6062      74.4900      108.504      90.6353      136.610      168.435      265.039      271.242      598.471      796.030      890.214      1210.11      2448.85      4463.29      7360.77      21368.4     -1.00000
      568.000      329.000      28.9424      37.8273      37.7680      53.3815      52.0732      97.4111      121.254      228.797      249.489      599.256      755.983      848.694      1221.40      2444.31      4335.22      7322.23      21765.2     -1.00000
      319.000      267.000      23.5698      16.8434      33.1880      57.1429      116.964      92.5477      132.772      565.169      215.277      581.243      2034.63      2600.04      1206.49      2397.46      4337.72      7191.70      20980.4     -1.00000
      800.000      403.000      39.5103      31.1694      35.8620      56.8053      58.1487      93.3008      131.161      209.273      214.778      525.256      665.767      754.840      1056.03      2168.00      3917.37      6626.69      21001.0     -1.00000
      273.000      512.000      54.4291      35.5814      56.6278      64.1251      59.3978      76.1889      111.441      154.229      166.045      311.131      467.645      505.957      689.589      1264.50      2280.56      5077.00      21010.8     -1.00000
      15.0000      1001.00      53.5094      43.6291      54.8279      71.7068      68.5123      124.379      135.365      233.097      241.436      553.060      675.108      772.004      1109.12      2338.18      4217.17      7102.77      20996.5     -1.00000
      799.000      301.000      27.5633      42.2307      46.4017      37.7086      50.1808      93.8547      122.337      209.412      243.136      565.808      667.654      764.207      1111.31      2268.28      4068.79      6787.58      21002.3     -1.00000
      519.000      964.000      61.5431      72.3899      74.5297      67.5644      86.2280      122.979      151.452      216.203      262.908      525.909      675.457      746.083      1057.88      2122.15      3865.61      6625.46      20978.8     -1.00000
      409.000      674.000      48.3588      56.1619      65.5288      87.9700      73.3948      120.194      143.588      250.805      266.516      548.754      668.098      773.543      1092.66      2268.98      4025.00      6860.96      20976.6     -1.00000
      123.000      78.0000      7.51069      5.07066      12.4788      17.0697      24.5399      26.0192      26.6621      50.7995      59.7130      88.6402      99.8254      126.165      131.261      233.208      287.698      340.988      20617.3     -1.00000
      360.000      849.000      60.5801      80.9447      71.9214      65.4845      78.8446      130.904      147.601      269.025      258.079      601.679      794.875      927.316      1147.69      2478.16      4291.66      7104.36      21185.8     -1.00000
      280.000      559.000      47.6540      56.8029      53.9110      64.5060      85.8438      134.935      155.688      380.346      295.283      674.938      1243.13      1415.74      1429.23      2929.31      5427.22      9199.62      20619.5     -1.00000
      332.000      709.000      60.2337      53.4503      59.7291      81.8209      88.2361      120.252      149.847      220.185      262.031      583.714      679.455      795.001      1129.19      2294.23      4109.69      6933.52      20638.4     -1.00000
      237.000      73.0000      10.1950      22.7021      29.5782      21.4478      34.6802      79.0225      122.144      213.974      222.934      538.680      672.099      786.083      1142.89      2358.85      4049.86      7004.07      20431.5     -1.00000
      903.000      176.000      24.2407      23.7943      26.7980      38.0948      56.0794      86.3026      124.643      282.896      260.669      544.675      913.089      1062.63      1152.92      2206.68      3986.90      6808.73      20600.6     -1.00000
      807.000      335.000      27.5353      29.2940      40.6329      57.2409      48.8018      97.4979      115.845      219.514      224.904      466.516      618.667      663.742      960.162      1965.93      3555.94      6051.55      18026.6     -1.00000
      616.000      774.000      47.4984      48.8076      58.2998      63.1046      64.8476      120.769      127.622      188.594      223.085      518.555      482.318      731.099      1034.68      2093.94      3778.02      6432.88      20238.5     -1.00000
      795.000      822.000      49.1393      69.8354      59.3398      65.3448      97.9955      85.9005      133.392      271.527      166.279      553.096      842.583      979.800      1130.78      2281.90      3844.51      2978.64      534.016     -1.00000
      35.0000      358.000      38.2358      26.1824      34.9278      37.3870      68.5016      107.854      118.558      311.362      220.771      516.482      996.162      1146.54      1020.76      2166.58      3894.24      6526.84      20049.4     -1.00000
      50.0000      806.000      66.3951      69.0206      65.5312      84.9155      94.2706      128.264      140.894      357.568      275.748      569.183      788.712      1546.77      1172.55      2359.04      4291.44      7154.08      20614.7     -1.00000
      101.000      162.000      19.2683      15.5823      21.0591      42.1401      47.4815      77.0997      115.002      205.143      228.025      550.824      681.648      787.612      1147.07      2321.64      4062.77      6769.33      19869.4     -1.00000
      840.000      394.000      29.3628      28.8668      30.4686      38.0052      59.1825      78.5627      123.026      205.535      237.260      503.672      803.393      936.443      1059.63      2122.99      3987.23      6462.27      20051.7     -1.00000
      928.000      486.000      38.2556      39.9601      50.4353      61.2683      45.1250      99.9736      123.953      206.865      220.763      515.724      617.662      219.827      1039.09      2105.97      3851.44      6355.74      19900.2     -1.00000
      12.0000      601.000      9.46272      35.3697      30.8253      24.3070      38.2629      119.216      97.2889      110.607      130.128      324.384      433.171      479.825      628.140      1297.60      2184.06      3914.51      19891.1     -1.00000
      338.000      677.000      53.5241      60.1372      59.8840      63.9248      70.7224      118.125      126.748      259.345      263.898      527.487      674.706      789.122      1142.98      2291.85      4092.98      6837.79      19867.8     -1.00000
      759.000      228.000      25.1485      26.5459      39.6162      35.1256      39.0530      85.7463      122.781      203.104      237.116      518.162      623.471      738.619      1061.89      2107.69      3747.07      6437.86      19860.2     -1.00000
      735.000      924.000      70.4040      63.5309      85.1978      59.3628      88.7537      93.3737      131.030      214.786      245.417      540.063      669.333      747.578      1053.80      2171.73      3837.15      6474.32      19890.7     -1.00000
      158.000      43.0000      14.9304      16.8857      21.2121      30.4948      37.4036      76.5215      100.524      203.508      222.555      520.983      666.522      753.650      1036.64      2199.85      3856.89      6389.58      19860.1     -1.00000
      631.000      3.00000     -9.38274      4.33216      5.74013      22.6056      21.9638      69.5973      81.6790      110.627      174.825      499.527      611.548      734.867      1040.58      2123.20      3782.72      6501.05      19857.5     -1.00000
      363.000      642.000      54.6683      59.3869      74.0385      82.8194      83.9874      143.024      157.624      266.890      267.334      638.945      685.953      940.972      1270.60      2636.76      4632.92      7785.19      19501.1     -1.00000
      125.000      731.000      56.8201      57.7689      60.7370      74.3435      65.5673      115.923      149.013      264.282      264.350      567.336      753.724      812.264      1147.08      2293.28      4004.43      6663.96      19879.2     -1.00000
      765.000      650.000      48.9595      53.3758      73.5063      68.5860      85.3383      131.483      145.277      230.541      226.652      533.642      667.143      734.759      1027.16      2084.52      3715.56      6253.63      19466.1     -1.00000
      820.000      335.000      40.3660      30.4385      37.3167      54.2027      41.8529      97.4979      122.075      191.873      198.283      493.924      671.760      780.157      1081.24      2211.46      3935.28      6620.09      19857.5     -1.00000
      683.000      2.00000      10.7063      21.2149      13.8013      28.7402      42.9769      97.6267      117.209      234.878      268.168      536.830      674.537      765.836      1101.18      2214.01      3880.19      6545.90      19671.6     -1.00000
      689.000      480.000      34.2222      55.2673      60.1279      72.8827      65.7554      119.646      135.051      178.231      231.429      501.402      592.815      652.851      938.298      1865.43      3355.49      5465.07      18008.2     -1.00000
      223.000      79.0000      26.4899      28.7030      25.6137      30.7785      37.2815      70.8777      95.1783      204.222      203.353      509.706      610.980      724.833      1041.11      2173.70      3821.69      6382.49      19482.7     -1.00000
      571.000      519.000      42.5413      32.8785      57.6039      64.8901      62.5278      119.024      136.434      228.474      265.114      538.431      631.558      746.084      1070.86      2153.05      3829.97      6445.06      19515.8     -1.00000
      938.000      268.000      25.7203      21.4980      37.0006      57.3569      50.9069      73.3389      115.873      213.956      246.617      513.277      625.996      802.659      1055.31      2136.59      3895.28      6485.95      19110.9     -1.00000
