PDS_VERSION_ID         = PDS3
RECORD_TYPE            = STREAM
OBJECT                 = TEXT
  PUBLICATION_DATE     = 2014-02-19
  INTERCHANGE_FORMAT   = ASCII
  NOTE                 = "WAC hot pixel file for epoch 2004.3."
END_OBJECT             = TEXT
END

WAC hot pixel list. Lines 1 and 2 are column headings giving exposure time 
(sec) and gain state (e-/DN), respectively, of source dark images. Starting 
on line 3, first two columns indicate x and y value of hot pixel; columns 3 
through N-1 give median electron counts for each exposure bin, and last (Nth) 
column contains either the index of the exposure bin where saturation first 
occurs, or -1 if no saturation.

\begindata
      0.00000      0.00000   0.00500000     0.100000     0.320000     0.560000      1.00000      2.00000      3.80000      6.80000      12.0000      22.0000      46.0000      82.0000      150.000      320.000      1200.00
      0.00000      0.00000      11.7270      11.7270      11.7270      27.6800      27.6800      27.6800      27.6800      27.6800      27.6800      27.6800      27.6800      27.6800      27.6800      27.6800      27.6800
      833.000      328.000      200.975      311.201      653.334      973.015      1595.42      3073.30      5496.06      9619.73      16577.4      29117.4      23974.5      86447.6      111398.      111393.      111412.      12.0000
      554.000      174.000      176.805      269.201      591.195      893.367      1486.24      2864.62      5272.72      9398.54      16053.7      28431.7      54740.9      87235.1      111399.      111392.      111412.      12.0000
      268.000      77.0000      116.172      216.753      464.477      695.409      1142.08      2131.42      3945.87      6956.24      11935.0      20760.9      39625.6      62417.2      95182.8      111393.      111412.      13.0000
      577.000      598.000      168.142      197.780      304.869      440.315      732.527      1264.27      2380.93      4271.08      7416.00      13487.0      28022.6      47896.6      80559.8      111392.      111412.      13.0000
      259.000      132.000      81.4590      114.558      320.204      440.175      734.739      1365.86      2542.54      4442.23      7786.38      14096.7      28616.2      48283.5      79971.0      111394.      111412.      13.0000
      224.000      420.000      126.020      202.190      349.662      484.551      752.610      1456.87      2685.02      4782.17      8462.09      15187.6      30062.4      50175.1      79281.1      111400.      111412.      13.0000
      685.000      585.000      158.767      229.387      402.560      588.073      938.731      1726.82      3223.39      5581.13      9677.74      17205.9      33043.7      52000.7      79128.2      111394.      111412.      13.0000
      561.000      116.000      109.211      138.956      307.781      414.871      731.949      1328.38      2502.49      4395.08      7672.73      13562.8      26563.6      43624.8      69196.4      111167.      111412.      13.0000
      962.000      403.000      102.731      135.799      245.939      377.537      592.936      1105.27      2047.04      3701.43      6547.61      11728.7      23233.0      38766.2      62865.0      104035.      111412.      14.0000
      365.000      612.000      97.4402      140.279      203.691      263.970      405.904      779.937      1435.85      2477.12      4485.56      7750.38      16386.3      28625.5      49114.0      92335.7      111412.      14.0000
      44.0000      6.00000      25.1715      67.0051      154.570      218.044      387.268      653.259      1274.63      2231.85      3877.68      7089.29      14376.1      24845.8      42717.5      79160.4      111412.      14.0000
      631.000      4.00000      32.2345      35.1926      88.1573      129.611      231.360      400.245      755.414      1409.67      2435.55      4446.75      9198.90      16054.0      28530.5      56707.4      111412.      14.0000
      615.000      629.000      68.8640      99.1840      132.662      197.206      344.269      510.972      932.095      1603.76      2881.88      5219.18      11031.7      19683.9      34808.3      67444.5      111412.      14.0000
      787.000      651.000      102.591      61.3183      153.134      164.677      252.453      464.225      918.909      1572.22      2347.50      4875.46      8850.56      16761.9      28492.8      59028.6      111412.      14.0000
      630.000      1000.00      84.3326      102.842      178.651      200.065      287.551      481.448      851.113      1418.72      2489.41      4659.15      9567.38      16848.5      29618.9      57153.6      111412.      14.0000
      950.000      163.000      34.3803      50.3520      75.4168      136.619      209.123      380.069      708.241      1221.34      2043.11      3829.08      7844.49      14044.1      25393.0      52048.0      111412.      14.0000
      153.000      15.0000      55.2972      63.0610      121.497      182.576      308.544      576.390      1069.80      1894.42      3275.57      5799.45      11696.7      19747.8      33427.8      60296.3      111412.      14.0000
      198.000      682.000      106.945      108.102      128.991      209.879      328.241      608.957      1065.07      1866.95      3176.31      5680.73      11553.4      19446.2      32576.7      57520.5      111412.      14.0000
      971.000      821.000      89.9671      81.5738      107.215      169.927      263.612      434.004      758.372      1226.51      2091.86      3941.77      7961.02      14100.4      25146.8      49923.9      111412.      14.0000
      27.0000      157.000      48.1299      45.4852      96.1659      131.314      227.635      378.643      672.365      1234.76      2099.49      3826.90      7837.28      13826.0      24556.1      48965.2      111412.      14.0000
      196.000      915.000      47.1461      89.3144      177.506      175.730      245.445      397.099      662.261      1158.88      1956.74      3667.25      7660.99      13745.7      24740.8      49284.5      111412.      14.0000
      64.0000      541.000      85.3598      101.903      167.332      168.352      257.778      445.034      713.059      1342.61      2267.61      4191.79      8654.29      15008.5      26226.1      50258.6      109751.      14.0000
      518.000      314.000      71.5173      70.4397      103.627      146.625      248.092      394.022      727.862      1275.65      2255.49      4000.52      8268.31      14348.0      25125.6      48865.0      111412.      14.0000
      547.000      370.000      61.2028      71.1949      149.165      174.576      212.388      407.433      784.542      1295.51      2406.62      4346.00      8951.47      15176.9      26263.3      48650.4      110582.      14.0000
      293.000      642.000      39.3764      80.8630      117.134      160.212      244.594      397.482      685.581      1177.96      2018.38      3609.03      7635.33      13253.0      23366.5      45429.8      111412.      14.0000
      569.000      760.000      111.705      50.7197      162.390      150.942      245.892      379.136      674.357      1173.12      1976.75      3606.01      7247.92      12782.6      22521.7      43817.1      110582.      14.0000
      176.000      663.000      67.4139      60.1251      124.875      131.652      220.530      295.344      561.419      991.497      1648.99      2924.76      6082.75      10956.6      19762.4      40924.9      111412.      14.0000
      625.000      654.000      103.893      138.548      158.325      150.440      209.115      350.481      555.770      956.583      1703.63      3081.82      6576.58      11594.1      20768.3      41409.5      111412.      14.0000
      139.000      210.000      63.2631      43.8682      94.1235      134.757      217.892      341.838      648.427      1097.49      1938.06      3448.45      7076.91      12302.7      21658.4      42225.8      111412.      14.0000
      788.000      101.000      21.0531      49.8293      90.1351      105.258      155.082      311.116      510.811      938.759      1605.44      2908.89      6109.25      10565.2      18817.8      37672.9      107288.     -1.00000
      31.0000      908.000      83.8229      76.0285      176.868      171.210      264.213      391.638      698.228      1149.93      1997.21      3621.39      7631.01      13453.7      24010.4      47545.7      107288.     -1.00000
      14.0000      1023.00      82.6450      114.315      0.00000      218.498      319.131      517.168      919.132      1611.83      2732.97      4992.65      10411.4      18429.0      32777.6      64307.0      107288.     -1.00000
      856.000      823.000      116.784      85.2781      140.407      155.391      224.380      344.803      593.607      964.899      1641.87      2976.71      6353.39      11351.6      19995.4      39135.2      104824.     -1.00000
      354.000      280.000      54.6581      55.1257      73.3353      96.3027      98.8404      211.677      387.668      641.186      1143.33      2007.85      4145.24      7409.87      13498.0      28392.4      102416.     -1.00000
      378.000      741.000      97.8100      93.5252      60.4164      130.598      194.113      306.663      513.481      831.188      1418.55      2512.31      5257.47      9282.99      16573.4      33730.5      100811.     -1.00000
      270.000      26.0000      24.4005      26.9139      70.4891      69.4211      129.338      230.545      418.638      802.532      1380.93      2508.34      5045.40      8974.50      16104.9      33041.8      99232.8     -1.00000
      214.000      936.000      55.5900      71.8377      110.391      153.598      192.345      316.385      507.831      775.370      1249.61      2227.07      4614.64      8492.37      15543.4      32265.1      100036.     -1.00000
      896.000      73.0000      24.8636      55.3153      80.2216      104.553      171.480      309.564      557.986      899.625      1619.31      2962.26      6168.89      10825.1      19295.8      38230.9      98457.8     -1.00000
      705.000      195.000      43.8930      76.4723      79.2979      99.5423      142.547      259.564      482.243      899.119      1516.84      2701.40      5615.15      9827.41      17286.5      34720.6      98457.8     -1.00000
      806.000      136.000      23.7123      47.2196      66.2405      76.7897      120.625      233.539      401.148      595.476      1236.51      1979.18      4435.24      7356.81      13945.8      24639.7      97655.0     -1.00000
      800.000      542.000      80.5953      97.9826      116.088      114.937      166.045      288.469      462.992      787.400      1378.99      2528.76      5173.07      9046.26      16151.3      32883.2      96880.0     -1.00000
      208.000      776.000      68.6209      126.732      89.8865      149.170      238.683      356.882      574.076      988.700      1628.62      2884.84      5919.68      9825.25      18171.9      35800.7      96880.0     -1.00000
      718.000      160.000      27.2549      33.5248      79.7707      86.4597      126.590      211.687      394.612      688.185      1184.51      2215.90      4555.38      8194.66      14778.5      30509.3      94554.9     -1.00000
      1000.00      61.0000      39.5763      13.9934      35.4286      81.1016      130.318      155.826      390.060      632.927      1114.03      2022.68      4225.57      7384.52      13279.3      27746.2      93004.8     -1.00000
      220.000      4.00000      32.2345      36.6651      52.2224      76.4099      109.381      221.791      339.384      658.650      1129.27      2158.11      4362.83      7479.24      13323.5      27715.8      89987.7     -1.00000
      679.000      289.000      51.3077      56.5337      92.6195      87.7117      165.223      228.361      459.926      843.005      1404.99      2574.90      5260.33      9203.39      15427.6      31393.9      89212.6     -1.00000
      999.000      454.000      57.2130      68.3833      103.032      102.726      116.119      210.257      354.926      576.951      1038.34      1888.90      3858.65      6890.02      12411.9      25785.8      88465.3     -1.00000
      184.000      626.000      115.525      94.6646      143.111      114.594      153.994      307.387      436.646      760.240      1324.77      2320.71      4800.01      8461.32      15081.6      30497.9      86998.2     -1.00000
      75.0000      421.000      52.7516      42.6728      84.9117      119.894      138.671      238.662      415.740      703.268      1207.97      2180.29      4376.61      7749.22      14010.2      28676.6      84783.8     -1.00000
      604.000      268.000      60.5465      90.1788      67.7458      88.5563      104.348      231.865      405.084      669.858      1162.26      2065.65      4339.78      7680.95      13240.8      27241.4      84064.2     -1.00000
      486.000      353.000      54.8759      43.8734      83.3594      91.3469      166.328      207.231      380.951      662.494      1189.65      2129.48      4338.59      7611.92      13505.3      27431.9      84064.2     -1.00000
      602.000      231.000      44.7813      60.6808      80.2142      78.1455      106.749      208.098      389.171      622.182      1117.86      1978.30      3973.53      7012.99      12608.1      26057.1      83344.5     -1.00000
      690.000      447.000      64.4350      71.2884      60.0751      48.3184      49.9828      45.2674      68.5841      77.6449      1262.26      142.820      181.842      235.238      270.583      339.105      359.840     -1.00000
      426.000      434.000      48.0242      65.4470      61.3776      89.3157      141.377      194.234      323.739      584.103      931.028      1695.92      3563.96      6266.75      11360.2      23872.5      81905.1     -1.00000
      1014.00      619.000      67.7546      47.6144      96.0977      102.520      149.826      219.178      349.753      577.532      976.987      1711.55      3553.35      6377.19      11493.7      24086.6      81905.1     -1.00000
      845.000      827.000      103.525      46.4115      71.6786      121.788      171.269      250.467      387.829      642.246      1051.70      1899.16      3870.94      7010.09      12737.5      26642.7      80465.8     -1.00000
      584.000      626.000      95.8599      72.2490      110.789      118.452      140.154      239.894      381.286      610.951      1037.31      1833.42      3801.59      6767.52      12502.5      25509.6      79746.1     -1.00000
      554.000      173.000      17.0912      20.2959      38.8578      13.1994      34.0856      37.0607      37.2613      65.2602      128.031      115.331      217.103      267.765      314.667      505.561      77614.7     -1.00000
      475.000      445.000      35.1616      80.9207      70.2812      95.3564      114.987      206.145      292.337      540.026      873.219      1566.13      3179.71      5536.21      10124.8      21570.2      76230.7     -1.00000
      149.000      763.000      48.8629      98.0992      125.230      110.923      137.521      228.209      318.392      507.169      857.468      1531.15      3197.79      5670.97      10249.6      20941.4      75538.7     -1.00000
      577.000      599.000      43.4074      75.4414      79.8040      83.7403      80.9422      71.9366      108.242      129.830      191.838      231.878      332.125      449.129      572.513      791.427      74154.7     -1.00000
      631.000      32.0000      11.3620      24.4893      40.6818      72.5597      87.3531      194.322      306.211      638.526      1039.96      1862.53      3878.59      6800.62      12018.3      24430.2      72134.1     -1.00000
      894.000      781.000      65.8475      94.8542      102.472      105.779      152.296      230.597      402.470      599.311      1012.58      1789.60      3646.55      6510.58      11710.0      23905.4      72134.1     -1.00000
      375.000      793.000      57.6495      105.176      86.2375      72.0045      153.181      248.719      387.945      595.791      985.117      1732.73      3594.63      6285.10      11229.4      23208.9      72134.1     -1.00000
      689.000      775.000      75.8734      102.343      124.613      109.223      141.705      196.893      319.904      507.129      830.239      1471.99      3148.78      5384.89      9947.18      20766.8      71442.1     -1.00000
      626.000      890.000      125.753      66.5597      75.1773      129.615      152.244      216.595      365.650      591.812      926.616      1690.52      3427.25      6078.53      11081.9      22837.2      71442.1     -1.00000
      536.000      286.000      61.8926      41.2457      95.0876      105.926      119.224      180.145      334.977      537.269      951.311      1694.08      3471.91      6091.91      10939.3      22387.0      70777.8     -1.00000
      618.000      759.000      31.1613      114.078      95.0375      107.750      136.130      216.664      397.215      565.754      924.703      1628.49      3151.61      5776.46      10402.5      21598.0      70777.8     -1.00000
      860.000      925.000      108.992      105.256      83.2915      133.212      172.534      253.569      368.748      599.066      992.692      1755.08      3496.96      6129.87      11046.4      22460.8      70777.8     -1.00000
      431.000      741.000      69.7517      75.8339      75.3403      118.702      161.937      242.095      377.061      599.675      951.991      1588.73      3259.10      5829.33      10492.7      21583.1      70113.4     -1.00000
      833.000      329.000      57.7844      52.9872      67.1124      81.5639      73.6223      82.3676      124.027      153.720      190.546      259.359      318.894      446.594      571.652      1888.25      68784.8     -1.00000
      298.000      451.000      68.1257      105.949      73.4155      97.1705      126.020      219.066      351.491      578.244      997.451      1808.46      3768.11      6485.81      11643.7      23398.3      68784.8     -1.00000
      193.000      706.000      101.135      61.3807      134.948      118.962      136.650      219.843      352.427      633.073      1043.10      1834.56      3865.22      6863.04      12248.0      25345.0      68784.8     -1.00000
      643.000      148.000      49.8302      52.2182      71.2656      45.9955      115.014      127.203      193.674      320.323      1926.15      1876.19      4750.47      3315.36      17687.5      25735.6      110582.      14.0000
      641.000      14.0000      31.6118      40.8052      34.9131      68.9601      94.0934      167.335      298.677      486.323      880.196      1598.80      3206.70      5626.56      10120.4      20739.8      66819.5     -1.00000
      995.000      339.000      51.8129      72.0006      72.8896      76.8647      116.165      200.148      328.077      571.272      993.420      1762.56      3595.77      6248.41      11141.3      22464.2      66819.5     -1.00000
      1007.00      848.000      53.8164      110.860      114.101      95.3429      142.597      163.845      310.716      459.878      910.608      1289.36      2594.77      5946.11      9415.65      19993.3      66819.5     -1.00000
      278.000      187.000      33.8712      33.3444      41.9179      79.5644      56.5778      189.447      284.648      453.316      827.946      1475.94      3041.47      5251.18      9500.02      19721.6      66155.2     -1.00000
      35.0000      307.000      62.2631      69.5830      83.7969      107.291      120.161      254.321      435.132      762.624      1302.71      2323.55      4859.12      8681.41      15587.8      32724.7      66155.2     -1.00000
      677.000      370.000      45.3128      81.9200      65.7538      72.9161      88.2532      158.980      310.428      486.582      846.185      1422.45      2900.83      5157.03      9396.70      19488.1      66155.2     -1.00000
      538.000      619.000      35.3396      70.3398      55.3996      106.057      124.063      176.460      267.659      455.323      743.823      1276.64      2644.11      4660.54      8587.82      17908.8      65518.6     -1.00000
      357.000      87.0000      46.7186      48.7268      22.7881      44.6470      79.2643      125.644      240.990      433.338      727.346      1247.29      2648.31      4728.81      8451.47      17849.1      64854.2     -1.00000
      0.00000      253.000      106.049      118.440      130.045      150.883      192.555      288.013      451.999      716.120      1168.58      1964.03      3917.23      6472.17      11113.0      21833.5      64217.6     -1.00000
      912.000      647.000      73.7747     -8.34636      30.0804      89.2367      136.941      181.583      290.890      472.275      768.913      1291.00      2648.75      4657.90      8408.63      17822.7      64217.6     -1.00000
      493.000      874.000      65.8091      132.450      102.752      124.652      129.799      243.807      352.143      542.718      867.282      1584.93      3184.73      5573.92      10069.5      20438.5      63581.0     -1.00000
      1002.00      897.000      59.6088      100.592      134.991      126.404      138.286      208.151      320.443      490.091      837.263      1430.56      2945.13      5340.71      9540.01      19917.0      63581.0     -1.00000
      333.000      901.000      119.109      66.2684      62.0808      100.360      139.472      200.683      320.364      499.109      780.994      1433.02      2909.40      5064.13      9143.51      19118.0      63581.0     -1.00000
      497.000      390.000      49.0600      39.9235      56.2618      82.6081      129.250      188.557      308.343      524.831      880.255      1512.10      2995.68      5268.21      9655.86      19751.6      62335.4     -1.00000
      952.000      695.000      90.2742      53.8815      118.080      94.1671      116.912      172.659      301.143      435.207      720.853      1339.26      2698.07      4741.90      8563.57      18055.4      62335.4     -1.00000
      356.000      70.0000      28.0567      23.5182      48.8215      68.1840      101.737      177.583      310.535      497.546      900.955      1499.02      3027.47      5391.22      9222.35      19279.6      61698.7     -1.00000
      909.000      161.000      11.6950      26.8578      40.3679      71.9170      71.5180      122.818      208.100      413.456      715.595      1340.24      2556.06      4401.50      8682.77      17416.3      61062.1     -1.00000
      674.000      645.000      53.1139      84.5221      126.665      89.9894      126.037      234.986      345.273      581.701      998.519      1745.70      3466.11      6203.37      11120.8      22075.2      61062.1     -1.00000
      313.000      809.000      28.2377      32.6389      63.0147      95.7597      154.981      217.436      305.881      489.571      813.018      1404.38      2775.68      4921.11      8693.58      18332.7      61062.1     -1.00000
      990.000      458.000      44.4771      43.7540      59.9819      50.2561      45.4959      79.7776      192.862      358.231      671.723      1222.14      2564.32      4521.40      8282.37      17287.1      60453.1     -1.00000
      712.000      848.000      112.488      52.2121      144.034      96.9380      124.171      187.964      287.955      467.286      769.176      1372.96      2717.64      4771.15      8751.05      18301.9      60453.1     -1.00000
      643.000      899.000      58.3069      53.6965      128.219      104.605      140.911      179.637      260.839      426.548      688.773      1138.40      2338.70      4074.86      7518.04      16173.3      60453.1     -1.00000
      94.0000      466.000      42.9685      38.9484      94.0101      95.7877      84.9320      176.377      264.864      481.803      761.476      1375.54      2806.04      4914.78      8763.26      18218.8      59844.2     -1.00000
      496.000      7.00000      10.4069      34.1007      23.5740      39.5185      24.9348      110.297      139.878      209.634      297.001      588.674      1122.29      1847.57      3242.26      6910.76      59207.5     -1.00000
      206.000      104.000      23.9028      32.5341      18.9090      56.1325      89.3831      117.272      236.961      439.698      746.986      1340.01      2751.51      4850.38      8652.64      18041.6      59207.5     -1.00000
      97.0000      627.000      98.1166      53.6624      75.7182      86.6083      137.529      173.578      295.848      476.202      785.756      1374.41      2821.48      4849.60      8762.31      18095.1      57989.6     -1.00000
      213.000      240.000      33.5257      56.4664      76.5021      68.8375      79.8625      150.554      289.255      444.079      747.774      1361.70      2721.34      4680.18      8348.15      17231.3      57380.6     -1.00000
      341.000      275.000      17.9575      59.8060      32.8477      80.9112      93.7847      135.695      258.781      439.003      704.232      1270.24      2483.18      4427.72      7855.29      16444.7      57380.6     -1.00000
      537.000      652.000      84.4772      105.806      125.455      90.4296      127.383      188.459      281.782      461.480      714.555      1233.91      2496.33      4485.90      8004.08      16768.7      57380.6     -1.00000
      529.000      804.000      75.9050      51.7309      76.2727      106.162      137.353      214.757      318.641      499.605      780.958      1375.47      2749.19      4808.50      8701.21      17776.1      57380.6     -1.00000
      899.000      837.000      91.8464      94.6010      114.748      107.149      134.460      183.220      271.961      433.794      688.091      1197.47      2487.29      4318.59      7797.43      16459.4      56771.7     -1.00000
      168.000      603.000      75.8775      123.171      124.767      102.241      137.972      241.850      318.425      569.922      914.645      1682.12      3437.48      4854.84      8687.37      20474.2      56190.4     -1.00000
      683.000      149.000      26.0724      28.5891      45.8263      66.8837      82.8729      136.498      221.349      430.302      730.456      1296.05      2666.68      4681.32      8304.66      16990.3      55581.4     -1.00000
      814.000      352.000      78.0948      61.7809      78.9823      87.2731      110.831      174.753      261.580      439.396      757.666      1373.31      2731.03      4799.75      8413.73      17393.6      55581.4     -1.00000
      293.000      379.000      62.1784      46.9087      53.9406      73.7930      95.7484      169.742      282.021      427.291      763.550      1311.88      2595.68      4603.14      8144.85      16960.8      54391.2     -1.00000
      460.000      163.000      37.8730      41.1977      67.6898      76.0443      70.7234      105.433      237.836      378.652      703.270      1209.03      2441.83      4353.92      7710.41      16043.0      53809.9     -1.00000
      794.000      636.000      34.7094      78.0932      24.5549      78.0508      106.753      165.150      238.699      401.563      666.418      1124.80      2313.85      3999.95      7286.46      15364.5      53809.9     -1.00000
      99.0000      868.000      53.7282      109.954      94.4737      123.462      129.301      164.425      283.611      413.831      664.924      1190.36      2417.50      4115.89      7560.14      15756.5      53809.9     -1.00000
      538.000      317.000      15.6538      34.5301      56.2364      51.7554      87.4306      105.177      212.540      357.161      567.083      1047.55      2052.71      3621.38      6412.47      13340.6      53228.6     -1.00000
      1013.00      608.000      38.5172      100.503      34.5701      82.3866      113.948      192.609      258.167      418.568      712.040      1286.38      2592.30      4499.97      8016.19      16489.0      53228.6     -1.00000
      349.000      73.0000      13.1366      41.7824      51.0807      51.9433      50.8020      108.323      183.718      292.352      521.666      892.600      1822.58      3255.27      5647.20      11779.8      52066.1     -1.00000
      589.000      469.000      58.9270      84.0001      100.473      89.2905      83.3921      133.959      261.926      418.384      684.470      1179.14      2430.16      4199.93      7603.01      15678.0      51484.8     -1.00000
      705.000      439.000      53.1828      99.7698      77.7776      85.6374      102.695      172.765      230.720      411.967      683.735      1155.09      2332.24      4108.45      7371.64      15143.2      50903.5     -1.00000
      516.000      918.000      109.692      112.018      88.5451      110.812      136.208      181.091      264.005      389.253      649.290      1084.73      2250.57      3858.84      7026.61      14737.2      50349.9     -1.00000
      979.000      968.000      113.678      98.4229      70.6398      89.2482      120.047      189.320      278.538      442.764      649.497      1167.62      2295.38      4049.67      7324.89      15007.2      49215.0     -1.00000
      259.000      133.000      26.1220      28.5495      45.4388      32.8422      39.0573      20.0287      25.7018      64.4938      125.026      172.121      215.178      324.882      346.978      509.794      48661.4     -1.00000
      283.000      219.000      48.2890      58.9567      85.1916      42.4135      84.1889      128.310      207.556      348.803      600.611      1066.49      2217.23      3813.61      6918.08      14182.2      48661.4     -1.00000
      623.000      532.000      90.0334      88.4794      26.1985      80.2929      99.5495      161.806      264.117      391.765      610.897      1059.41      2115.81      3720.25      6739.69      14106.8      48661.4     -1.00000
      280.000      597.000      75.9557      89.8517      91.9036      80.2661      120.808      170.624      251.088      402.102      664.711      1134.46      2302.98      3963.17      7093.66      14598.4      48661.4     -1.00000
      179.000      886.000      42.5297      53.1543      73.3269      101.401      144.709      188.295      255.000      410.875      670.467      1125.73      2320.82      3991.45      7139.92      14596.0      48661.4     -1.00000
      785.000      438.000      53.4451      77.2711      97.5108      79.0102      95.1051      130.209      219.585      359.690      601.873      991.579      2011.45      3460.68      6235.34      13114.4      47554.2     -1.00000
      515.000      681.000      101.430      45.7018      59.9343      96.3480      135.476      160.475      277.918      424.238      673.365      1156.31      2371.43      4139.20      7354.62      14772.8      47554.2     -1.00000
      1002.00      688.000      28.3314      80.9642      169.435      163.193      219.298      392.915      684.071      1193.72      2042.04      3640.40      7206.52      11734.1      18136.7      28168.8      47554.2     -1.00000
      117.000      372.000      43.9960      58.6465      40.7626      64.1093      80.3782      127.116      199.454      330.180      532.197      980.190      1905.81      3334.57      5967.73      12789.0      46447.0     -1.00000
      505.000      972.000      33.9386      94.8279      81.4350      108.638      128.096      186.485      215.910      352.775      512.605      890.126      1780.47      3102.76      5620.36      11915.7      44813.9     -1.00000
      555.000      3.00000      28.3741      25.4060      26.2057      27.5618      60.6689      126.565      174.851      328.834      552.968      951.109      1934.31      3444.20      6052.34      12580.3      44813.9     -1.00000
      833.000      731.000      94.6759      84.5992      107.886      104.438      127.162      183.693      253.169      401.688      621.554      994.846      2059.23      3529.72      6341.92      13132.5      44813.9     -1.00000
      330.000      298.000      52.3431      30.8544      64.8977      50.3896      107.767      118.336      209.823      361.677      624.215      1064.94      2155.81      3753.73      6663.28      13847.6      44260.3     -1.00000
      426.000      950.000      51.9312      111.417      57.5780      106.427      135.601      173.784      248.276      353.515      579.250      1006.82      1906.42      3404.31      6075.63      12803.4      43734.4     -1.00000
      502.000      203.000      31.3190      44.4224      75.0834      61.5331      98.0942      124.957      219.597      368.442      569.560      968.058      1894.30      3293.88      5849.48      12100.2      43208.5     -1.00000
      914.000      523.000      74.9846      48.1155      71.4264      76.9554      95.2904      159.064      217.893      364.367      608.009      1021.83      2007.40      3486.26      6305.34      12971.3      43208.5     -1.00000
      474.000      539.000      13.2447      44.9739      79.0643      72.6458      94.5193      153.366      222.662      381.074      679.418      1124.42      2332.29      3991.72      7041.76      14454.6      43208.5     -1.00000
      1.00000      865.000      85.4385      84.8052      106.426      105.322      117.325      143.940      239.518      356.893      571.991      962.438      1919.84      3306.78      5988.07      12459.9      43208.5     -1.00000
      281.000      753.000      54.4329      111.554      37.7785      91.9699      110.968      162.035      221.807      344.321      551.508      952.276      1974.34      3248.94      5793.99      12220.3      42682.6     -1.00000
      843.000      346.000      59.8665      73.0743      58.0475      60.9103      63.3795      125.017      210.334      345.270      565.309      917.801      1879.85      3337.43      5902.51      12387.4      42156.6     -1.00000
      472.000      475.000      83.4532      17.6074      70.0105      58.4222      87.1380      131.258      211.856      334.079      529.714      900.247      1856.54      3268.89      5935.03      12433.9      42156.6     -1.00000
      1002.00      785.000      96.1412      51.6897      78.4142      92.8435      132.185      141.745      242.722      363.005      555.695      957.078      1895.40      3313.71      5985.58      12480.5      42156.6     -1.00000
      554.000      175.000      37.4407      54.8075      47.3445      58.5468      62.7187      76.7732      71.2652      122.989      132.397      155.868      272.204      316.070      407.458      6153.25      111412.      14.0000
      780.000      518.000      34.9639      41.9012      85.5979      60.8086      82.5342      153.460      221.949      346.921      571.795      963.557      1908.44      3283.84      6014.49      12457.6      41630.7     -1.00000
      169.000      539.000      88.1321      31.2818      55.6104      76.5580      93.5862      134.117      221.052      344.558      567.444      1042.49      1944.77      3297.72      5850.35      12102.4      41630.7     -1.00000
      318.000      560.000      57.4817      85.5994      65.3729      81.7611      98.3774      150.893      219.878      345.266      506.667      1095.35      2222.81      3805.59      6799.27      13979.2      41630.7     -1.00000
      719.000      114.000      28.4418      22.0952      44.9799      42.9880      75.5598      109.184      194.026      369.215      595.663      1127.31      2264.64      3783.47      6677.42      13544.6      41104.8     -1.00000
      59.0000      689.000      69.8305      114.079      45.0729      99.7661      107.196      138.797      246.468      362.836      533.778      919.624      1918.02      3278.23      5983.89      12530.8      41104.8     -1.00000
      783.000      105.000      34.2967      27.5211      45.9019      49.9118      70.8463      116.548      182.129      332.888      534.612      968.350      1965.97      3413.44      6052.10      12827.7      40606.6     -1.00000
      849.000      118.000      20.3754      27.6276      31.3997      41.2199      71.5238      122.359      172.671      304.409      519.553      887.908      1822.66      3114.93      5612.23      11681.9      40606.6     -1.00000
      806.000      942.000      96.5070      56.5192      131.606      107.677      137.969      178.155      228.401      357.738      530.120      843.489      1721.69      2887.77      5122.26      10929.3      40606.6     -1.00000
      833.000      327.000      26.9232      19.0371      42.0055      35.4855      30.5514      26.3844      73.5173      75.6383      116.730      131.804      169.690      295.719      285.310      372.958      40606.6     -1.00000
      549.000      715.000      17.6708      104.523      58.4686      88.5834      121.226      181.795      247.456      365.358      609.023      962.836      1901.57      3309.09      5793.96      11967.8      40606.6     -1.00000
      865.000      883.000      64.3988      54.8362      92.4088      102.973      107.876      141.025      242.622      333.356      487.300      921.715      1836.11      3143.21      5547.86      11742.3      40080.6     -1.00000
      85.0000      62.0000      21.1813      33.6702      43.9837      58.0143      77.0342      73.4348      180.352      296.321      466.525      840.430      1661.04      2989.92      5283.01      10993.4      39582.4     -1.00000
      496.000      782.000      94.0158      53.3531      86.4939      107.180      109.741      147.091      213.394      330.168      482.498      865.699      1712.92      2994.40      5251.45      11060.2      39582.4     -1.00000
      669.000      867.000      24.6645      118.973      52.6660      99.5361      126.041      158.770      227.828      353.852      564.116      878.577      1851.07      3161.15      5703.07      12108.0      39582.4     -1.00000
      734.000      62.0000      13.0096      42.5507      32.2568      54.6989      49.3542      99.7664      173.853      272.289      508.045      918.101      1743.53      3092.45      5505.01      11412.1      39084.2     -1.00000
      125.000      390.000      50.9727      61.9922      66.8867      60.1992      76.0625      133.816      175.456      303.391      520.207      847.646      1721.29      3040.78      5393.65      11408.8      39084.2     -1.00000
      876.000      717.000      44.9871      98.0013      50.6168      71.1736      97.1593      154.633      221.496      296.198      536.933      911.652      1752.05      3149.77      5548.45      11534.2      39084.2     -1.00000
      816.000      299.000      57.3539      36.6057      46.4866      71.4418      78.7987      106.860      180.872      300.336      503.474      881.558      1803.57      3169.62      5578.87      11591.1      38585.9     -1.00000
      585.000      354.000      35.7927      79.7114      46.9441      69.3013      86.0291      98.3309      200.047      297.090      500.186      880.760      1709.31      2960.06      5282.13      10955.6      38087.7     -1.00000
      656.000      264.000      48.6065      45.0053      55.0463      41.2154      70.5457      77.5846      116.925      231.982      403.438      677.724      1349.54      2332.01      4129.07      8605.91      30946.2     -1.00000
      528.000      749.000      85.1763      115.885      64.9294      107.690      99.4167      151.275      199.207      328.327      553.248      875.569      1722.64      3017.81      5315.76      10971.2      38087.7     -1.00000
      574.000      827.000      94.3000      128.500      95.1325      99.2380      128.293      139.747      216.707      312.093      497.133      826.692      1622.36      2839.84      4983.46      10603.9      38087.7     -1.00000
      289.000      420.000      43.9314      70.9509      52.9908      232.132      59.7793      31.6212      58.7202      66.7986      99.3448      162.518      182.742      243.931      3571.99      10229.8      498.240     -1.00000
      657.000      33.0000      9.30985      40.5454      51.8289      54.4125      62.1873      116.070      194.401      309.318      510.578      896.327      1781.50      3029.35      5372.98      10978.3      37589.4     -1.00000
      612.000      670.000      87.0205      100.631      116.729      84.6998      65.8807      159.030      221.993      309.951      512.650      883.555      1702.15      3008.01      5344.83      11207.2      37589.4     -1.00000
      933.000      495.000      70.4685      60.9996      82.7210      82.4638      75.2241      100.597      188.014      294.981      445.467      832.059      1608.24      2873.43      5078.93      10598.1      37091.2     -1.00000
      773.000      74.0000      15.9586      30.3402      22.9375      35.7355      48.8839      108.616      164.763      255.763      470.771      803.320      1655.80      2828.28      5183.78      10633.9      36593.0     -1.00000
      753.000      236.000      43.6603      37.4488      45.5219      64.0252      49.4830      106.341      171.069      277.316      468.994      814.138      1716.20      2940.71      5171.17      10703.4      36593.0     -1.00000
      115.000      807.000      99.5151      41.0345      75.9290      90.6111      130.343      140.010      241.087      338.827      545.492      882.216      1676.88      2906.48      5186.04      10830.9      36593.0     -1.00000
      1.00000      565.000      50.5005      71.2022      74.4909      81.3066      119.531      181.636      256.066      354.974      544.890      931.253      1867.38      3222.26      5673.20      11524.9      36094.7     -1.00000
      762.000      536.000      62.1451      55.7481      84.6622      58.9822      88.1586      104.935      174.815      303.268      489.706      850.821      1622.24      2927.00      5212.95      10600.2      35624.2     -1.00000
      27.0000      953.000      98.8841      120.603      16.6330      78.3206      83.4707      94.3143      102.392      93.9045      133.472      134.490      188.251      226.488      323.602      396.671      35624.2     -1.00000
      589.000      648.000      56.7010      59.3555      120.085      80.4208      80.3688      136.471      192.152      282.862      478.279      793.647      1584.50      2674.30      4883.02      10066.1      35125.9     -1.00000
      844.000      704.000      49.8252      86.1053      26.0365      81.7989      114.583      181.392      208.886      338.265      494.944      860.900      1713.05      2858.48      5194.12      10568.1      35125.9     -1.00000
      795.000      810.000      133.587      129.157      119.544      91.3838      122.839      134.580      222.750      285.453      473.230      785.748      1479.14      2546.87      4658.40      9925.84      35125.9     -1.00000
      267.000      6.00000      28.8401      26.6178      36.9447      49.9943      41.2682      83.7146      156.603      245.863      427.392      787.049      1570.09      2720.96      4904.70      9986.95      34184.8     -1.00000
      742.000      246.000      30.5560      54.2840      52.2683      45.9573      57.9808      101.846      168.226      258.937      427.053      799.787      1531.09      2609.61      4630.44      9723.17      34184.8     -1.00000
      337.000      269.000      54.6568      38.0967      56.1220      50.4001      66.9842      95.7303      156.872      261.389      430.016      769.997      1554.07      2720.03      4751.57      9804.02      34184.8     -1.00000
      158.000      413.000      93.5253      68.6038      106.717      85.3647      82.3555      121.730      180.449      299.371      472.952      813.172      1582.28      2663.64      4701.98      9901.24      34184.8     -1.00000
      831.000      25.0000      2.23128      16.9658      25.2370      38.7083      69.9466      54.2071      146.081      300.363      396.973      785.721      1583.28      2731.09      4840.77      9920.46      33714.2     -1.00000
      213.000      47.0000      33.4215      40.9000      37.1706      33.2092      45.2097      104.865      155.702      246.319      428.960      799.097      1566.80      2706.65      4774.75      9701.32      33714.2     -1.00000
      84.0000      903.000      45.8325      61.1193      105.318      96.5350      108.728      111.966      211.479      300.682      441.676      707.296      1434.90      2439.99      4375.75      9050.89      33714.2     -1.00000
      601.000      457.000      36.6089      57.9438      57.7468      61.6075      114.925      90.2507      189.566      282.218      450.680      812.812      1514.14      2605.70      4541.14      9518.39      33714.2     -1.00000
      449.000      680.000      117.890      61.6051      99.2598      66.7565      78.1973      108.209      185.746      285.101      486.244      789.556      1561.37      2625.61      4722.41      9822.15      33714.2     -1.00000
      338.000      279.000      47.4533      31.2634      47.8233      74.7343      96.0382      136.839      230.944      311.893      501.514      822.878      1669.77      2871.76      4987.31      10121.2      33243.7     -1.00000
      874.000      751.000      101.620      58.7196      35.9545      81.6046      111.460      142.297      217.689      294.530      455.458      847.806      1511.30      2427.29      4463.86      9560.89      33243.7     -1.00000
      620.000      217.000      24.4446      42.8757      56.8083      38.2107      48.6942      95.2610      147.627      275.824      429.978      745.807      1428.48      2496.57      4440.56      9212.06      32302.6     -1.00000
      95.0000      485.000      43.2252      77.8688      74.8776      54.3537      68.5224      110.656      155.272      261.724      441.025      713.389      1415.53      2492.37      4448.18      9107.88      32302.6     -1.00000
      526.000      583.000      77.6878      72.7255      87.3872      78.2636      81.2222      124.568      205.569      290.826      467.070      799.417      1516.48      2577.51      4611.34      9448.11      32302.6     -1.00000
      710.000      19.0000      9.63959      32.4460      37.8752      35.2982      55.8053      64.1429      126.100      244.663      352.150      739.848      1472.81      2544.90      4524.86      9433.95      31859.7     -1.00000
      333.000      596.000      21.5003      86.5964      90.5122      73.1786      99.3518      127.847      171.879      293.508      459.575      807.282      1541.92      2698.09      4763.73      9755.75      31859.7     -1.00000
      469.000      19.0000      22.2193      24.3764      42.5165      35.2982      56.4354      90.3261      126.100      226.499      411.706      781.229      1472.81      2586.56      4531.42      9489.03      31389.1     -1.00000
      217.000      284.000      37.9673      48.0468      54.4617      59.1766      70.2739      88.7618      163.854      238.520      488.200      780.897      1500.53      2636.83      4629.64      9470.20      31389.1     -1.00000
      433.000      445.000      46.1179      61.0957      59.6098      63.2667      101.106      94.2497      181.950      261.739      445.563      741.481      1464.65      2582.64      4560.03      9190.24      31389.1     -1.00000
      830.000      669.000      64.2354      77.4083      55.7059      93.0322      102.937      127.881      187.650      274.980      440.518      730.670      1416.33      2455.57      4293.03      8966.24      31389.1     -1.00000
      528.000      635.000      50.6196      80.8228      40.7063      79.1350      93.3150      108.222      183.577      272.107      435.236      738.480      1417.68      2389.77      4210.31      8695.25      31389.1     -1.00000
      844.000      115.000      9.10161      4.03840      40.7154      47.5107      23.9890      72.1910      178.882      237.885      399.363      700.181      1362.76      2436.08      4161.44      8786.83      30946.2     -1.00000
      449.000      291.000      32.1623      26.7005      48.5631      39.5541      96.1306      104.559      146.643      241.549      425.113      703.908      1441.55      2471.25      4337.57      8905.43      30946.2     -1.00000
      742.000      390.000      37.3330      41.4280      52.9079      87.8792      89.9025      106.136      174.518      348.538      538.280      910.649      1812.38      3164.37      5642.77      11204.5      30946.2     -1.00000
      590.000      545.000      75.8816      74.0227      109.918      57.7281      80.7617      123.185      183.406      267.638      419.332      743.824      1433.58      2490.64      4475.01      9115.29      30946.2     -1.00000
      577.000      747.000      124.086      110.449      67.3675      82.4671      94.1856      113.631      215.507      301.197      459.938      780.003      1451.54      2498.74      4411.33      9115.88      30946.2     -1.00000
      382.000      814.000      70.0487      67.0200      83.2519      91.4059      118.664      139.409      167.638      282.088      436.405      704.757      1378.39      2321.40      4142.71      8837.18      30946.2     -1.00000
      441.000      823.000      105.776      110.045      53.5701      95.4746      109.675      136.693      188.152      287.447      456.898      741.902      1425.52      2542.68      4410.89      9213.50      30946.2     -1.00000
      119.000      869.000      122.490      50.3986      104.255      78.5859      99.0529      147.972      203.645      275.459      434.441      711.223      1376.76      2356.51      4241.12      8864.01      30946.2     -1.00000
      883.000      9.00000      9.03979      32.9232      18.7617      34.4767      48.3467      90.0981      139.593      231.685      370.676      709.218      1431.19      2533.79      4427.34      9150.27      30503.4     -1.00000
      605.000      658.000      108.307      86.5628      88.5146      73.9575      83.5353      103.879      189.273      282.698      411.792      678.372      1377.53      2342.95      4167.58      8678.03      30503.4     -1.00000
      516.000      1007.00      107.774      47.9122      113.804      93.0376      120.374      146.620      198.272      288.409      425.108      661.148      1390.69      2403.91      4298.60      8863.45      30503.4     -1.00000
      935.000      624.000      42.8871      98.2582      73.5315      80.6316      96.3457      100.545      181.968      264.449      405.324      679.721      1345.56      2331.97      4036.91      8431.16      30503.4     -1.00000
      409.000      357.000      53.0983      69.4055      45.2140      82.2101      82.6795      80.7210      156.208      218.563      361.614      630.640      1253.69      2116.33      3587.03      7566.52      26572.8     -1.00000
      902.000      897.000      60.2080      81.7525      111.537      90.4222      113.224      164.450      205.764      307.215      418.971      659.142      1320.06      2336.84      4153.87      8567.52      30060.5     -1.00000
      878.000      182.000      16.7881      32.2227      64.8487      59.7960      47.4235      74.3576      150.216      243.918      360.545      673.898      1316.10      2246.62      3993.78      8261.60      30060.5     -1.00000
      148.000      176.000      27.7281      43.3891      46.7585      53.5059      54.8791      122.865      145.201      247.438      434.788      701.655      1395.71      2393.43      4246.95      8534.69      29617.6     -1.00000
      282.000      250.000      34.7417      42.7523      69.0468      74.4447      65.9579      98.1997      182.004      258.509      439.667      749.819      1459.17      2402.88      4330.98      8723.87      29617.6     -1.00000
      432.000      406.000      59.0834      56.8905      72.2160      81.2029      92.4448      120.095      179.096      280.369      438.568      750.694      1459.63      2468.03      4250.56      8894.97      29617.6     -1.00000
      619.000      494.000      41.3517      65.9577      82.8387      76.8598      97.1535      111.717      157.949      273.526      430.559      705.933      1393.70      2349.96      4190.84      8540.33      29617.6     -1.00000
      987.000      41.0000      27.4415      26.6337      38.3367      29.1409      13.8479      47.7793      88.5542      239.119      367.997      673.679      1251.28      2206.28      3900.67      8090.22      29617.6     -1.00000
      610.000      850.000      123.584      119.088      49.8357      89.3787      139.239      145.798      196.344      285.844      422.570      646.596      1270.72      2193.47      3991.91      8282.36      29617.6     -1.00000
      991.000      235.000      22.5760      31.0008      49.5482      56.7760      61.8154      99.8457      148.254      218.329      414.397      680.640      1296.71      2338.61      4060.69      8252.82      29617.6     -1.00000
      520.000      16.0000      21.4329      2.33103      14.7029      23.9592      48.7882      49.2515      111.595      236.764      388.786      703.997      1394.93      2537.45      4303.52      8671.35      30060.5     -1.00000
      487.000      773.000      84.8923      92.2825      46.0397      86.0348      95.4933      117.620      164.229      260.538      374.267      627.342      1235.60      2096.45      3750.36      7872.72      29174.7     -1.00000
      619.000      866.000      81.6092      117.450      127.329      107.640      128.439      142.909      221.594      292.270      417.377      667.510      1227.83      2165.34      3744.66      7848.18      29174.7     -1.00000
      228.000      447.000      64.4350      82.3411      36.0150      58.4760      99.9506      100.627      179.304      243.725      418.163      681.526      1372.08      2358.78      4113.15      8393.16      29174.7     -1.00000
      160.000      554.000      52.4374      91.9402      58.7382      59.3408      74.9365      105.720      141.579      249.278      382.073      704.258      1324.58      2214.18      3932.39      8242.30      29174.7     -1.00000
      781.000      523.000      98.4385      65.2799      76.4560      59.4895      69.0407      90.8649      159.257      235.109      367.501      675.979      1261.88      2167.42      3865.89      7906.66      2325.12     -1.00000
      585.000      646.000      90.1149      54.7010      52.5714      74.1029      85.2146      123.451      181.974      269.733      414.230      626.672      1240.51      2166.64      3699.74      7972.95      29174.7     -1.00000
      244.000      451.000      32.9869      80.6378      69.4513      51.3813      84.1465      102.806      157.731      241.699      387.677      684.548      1304.59      2235.24      3947.32      8126.78      28731.8     -1.00000
      839.000      552.000      83.8989      49.1310      45.8624      73.0176      69.9242      135.673      160.389      276.425      373.690      690.292      1371.62      2228.60      4045.86      8353.91      28731.8     -1.00000
      775.000      402.000      34.0865      33.8767      79.9142      62.5265      64.7833      96.9819      169.320      238.602      404.686      685.933      1335.15      2287.10      3988.76      8325.06      28289.0     -1.00000
      911.000      557.000      34.1014      15.3586      88.7938      64.9529      71.7801      108.278      168.821      264.398      382.794      691.276      1397.00      2341.95      4100.77      8534.91      28289.0     -1.00000
      990.000      742.000      89.9764      89.9183      85.8601      66.6066      84.8815      84.4056      157.599      222.430      399.794      632.077      1338.56      2320.35      4038.41      8263.27      28289.0     -1.00000
      882.000      758.000      64.4312      68.0230      90.7333      93.8385      106.213      130.049      183.429      288.351      372.519      630.690      1238.38      2072.57      3728.34      7728.63      28289.0     -1.00000
      895.000      903.000      112.976      37.6654      71.6134      82.3691      94.8876      118.413      190.034      286.178      441.676      685.837      1379.26      2277.12      3987.95      8433.03      28289.0     -1.00000
      282.000      969.000      98.3704      77.2408      100.963      98.3674      98.1624      158.833      198.294      288.570      413.733      678.706      1299.09      2190.00      3805.68      8019.72      28289.0     -1.00000
      104.000      13.0000      15.6314      9.78952      27.0517      37.0302      40.8841      59.9399      119.090      209.205      340.295      633.091      1241.26      2206.06      3822.92      7859.95      28289.0     -1.00000
      235.000      338.000      56.5810      41.1827      70.2456      84.4301      71.0206      122.535      157.885      267.060      399.148      753.146      1382.14      2335.50      4221.11      8461.44      27846.1     -1.00000
      385.000      377.000      59.1550      49.4485      60.0387      59.2179      45.1111      92.7751      162.525      243.074      400.545      671.193      1308.97      2185.87      3891.42      8065.28      27846.1     -1.00000
      103.000      635.000      96.1018      101.932      51.4483      70.1538      91.8693      131.053      166.477      261.839      382.497      639.828      1290.24      2214.59      3853.94      8179.91      27846.1     -1.00000
      508.000      661.000      107.968      39.4528      84.0603      90.3665      101.767      154.741      184.425      293.909      443.679      699.574      1345.90      2175.37      3905.79      8249.21      27846.1     -1.00000
      5.00000      896.000      22.4172      35.0563      88.0633      88.2468      109.487      149.212      178.338      242.380      387.206      626.493      1205.91      1979.40      3586.49      7521.68      27846.1     -1.00000
      169.000      977.000      75.2611      84.4112      57.6483      89.5911      102.868      118.745      128.592      171.701      243.171      380.652      603.900      967.035      1592.16      3229.97      27846.1     -1.00000
      614.000      300.000      42.6939      45.4540      52.4217      49.1388      54.8969      109.510      137.686      211.694      377.527      644.433      1255.88      2136.23      3749.03      7719.83      27846.1     -1.00000
      676.000      139.000      12.7253      32.5355      42.1882      45.7890      45.5050      99.6004      121.685      219.059      373.456      642.504      1223.42      2108.00      3758.19      7735.55      27430.9     -1.00000
      512.000      158.000      32.8594      39.2137      41.6920      26.3724      49.3847      96.6046      120.137      221.026      388.458      632.661      1300.39      2168.83      3872.74      7889.50      27430.9     -1.00000
      586.000      247.000      54.8698      23.0599      63.9876      42.9959      57.5364      124.647      190.885      261.605      466.253      785.823      1514.82      2632.00      4711.02      9919.95      27430.9     -1.00000
      934.000      407.000      62.5348      65.7541      46.0536      74.4311      53.3404      92.7098      154.035      240.616      385.333      629.658      1287.96      2137.71      3812.13      7928.50      27430.9     -1.00000
      491.000      940.000      38.2742      126.452      58.8241      99.6570      124.235      150.675      180.593      257.289      362.791      560.119      1088.73      1830.20      3607.55      7592.03      27430.9     -1.00000
      951.000      621.000      102.552      85.9381      76.2833      100.962      84.4042      149.121      182.076      262.988      439.696      698.682      1240.75      2114.90      3674.95      7649.81      27430.9     -1.00000
      295.000      423.000      57.3103      75.4524      74.8036      61.4625      66.5902      106.678      147.043      235.094      402.435      654.576      1254.04      2129.99      3822.42      7798.41      26988.0     -1.00000
      282.000      278.000      49.7375      61.0142      29.7715      38.1505      48.1581      31.3995      62.4919      76.4634      96.7624      588.610      221.534      227.177      323.579      369.431      498.240     -1.00000
      328.000      714.000      93.6440      119.024      99.9472      79.9554      108.148      136.528      165.670      281.647      410.683      645.583      1283.87      2206.39      3881.19      7868.16      26988.0     -1.00000
      835.000      964.000      45.4430      113.692      95.6967      96.9988      97.5144      134.148      166.145      249.369      428.377      631.479      1210.00      2048.09      3636.06      7591.81      26988.0     -1.00000
      777.000      947.000      43.6102      54.7219      70.9415      130.122      134.850      184.379      252.346      317.058      469.818      697.815      1260.48      2130.52      3694.26      7535.39      26988.0     -1.00000
      77.0000      269.000      33.0389      48.7548      42.2028      56.2095      50.2688      79.9921      132.539      233.709      385.755      628.119      1258.14      2108.38      3772.58      7587.59      26572.8     -1.00000
      181.000      631.000      53.3100      80.9829      82.9147      59.5713      106.955      110.729      155.459      227.290      345.539      589.502      1076.94      1868.99      3215.77      6719.25      23694.1     -1.00000
      288.000      610.000      57.1234      85.9252      65.4602      80.4276      80.9191      108.429      181.298      253.073      454.108      711.961      1371.55      2330.45      4078.03      8270.50      26572.8     -1.00000
      194.000      79.0000      29.6136      25.4511      33.8943      44.3487      69.7774      52.4640      102.495      204.835      341.786      567.059      1093.56      1795.83      3059.12      6368.67      21756.5     -1.00000
      519.000      500.000      46.1759      11.1710      118.680      63.5241      78.3645      106.233      159.621      237.506      379.121      633.322      1210.44      2114.81      3630.93      7506.25      26572.8     -1.00000
      996.000      806.000      76.2516      126.506      105.170      63.8783      104.923      127.746      184.328      250.781      393.192      647.734      1197.55      2013.69      3580.18      7455.38      26157.6     -1.00000
      248.000      323.000      15.2197      36.1043      56.2217      59.6319      56.6687      89.6691      143.494      191.946      339.849      540.865      1036.57      1711.62      3024.62      6161.16      21369.0     -1.00000
      84.0000      6.00000      4.81514      5.60494      25.4998      17.0178      49.6506      81.1396      130.984      184.961      326.677      589.240      1183.40      2042.66      3469.66      7385.31      25742.4     -1.00000
      937.000      995.000      100.395      74.4468      105.014      76.1855      112.843      125.844      175.718      236.362      356.545      550.954      1078.21      1792.05      3120.84      6474.23      25742.4     -1.00000
      950.000      834.000      107.529      79.4549      115.548      74.7973      97.3155      130.227      185.552      257.676      383.291      631.741      1130.04      1887.05      3445.18      7060.48      25742.4     -1.00000
      973.000      59.0000      20.6808      18.0364      20.8602      39.9101      54.1760      84.4178      105.808      209.028      350.506      620.812      1241.45      2121.05      3734.00      7563.29      25327.2     -1.00000
      224.000      421.000      83.7095      65.8032      78.1224      57.5509      56.5842      86.9695      113.925      103.581      156.410      217.639      298.344      397.462      477.059      595.198      25327.2     -1.00000
      631.000      548.000      90.7046      75.2457      103.546      82.4024      99.9851      136.295      201.172      269.010      381.839      618.065      1192.75      1976.27      3484.05      7179.52      25327.2     -1.00000
      468.000      653.000      109.239      31.8443      60.1818      90.4720      98.5318      134.395      166.946      262.065      371.228      654.315      1238.89      2094.71      3577.28      7319.94      25742.4     -1.00000
      989.000      853.000      83.1650      74.2903      102.131      75.7122      98.7510      123.162      162.520      259.948      357.404      546.876      1129.14      1948.65      3428.89      7048.96      25327.2     -1.00000
      1012.00      986.000      64.5078      24.9158      83.5752      98.0262      97.2281      114.303      171.693      226.540      358.278      530.402      1009.85      1750.55      3137.27      6470.34      23306.6     -1.00000
      258.000      429.000      56.0771      73.2180      72.4706      49.4548      76.2952      118.290      149.798      216.015      382.413      572.427      1111.86      1888.16      3403.69      6985.16      25327.2     -1.00000
      871.000      37.0000      6.81704     -4.21463      5.21041      27.6652      23.1495      39.7171      123.051      152.132      333.803      569.593      1128.10      1981.32      3440.57      7136.02      24912.0     -1.00000
      282.000      199.000      5.32991      28.1147      57.1215      58.7636      67.8371      78.5404      116.887      222.599      334.563      620.640      1212.20      2041.80      3547.79      7230.98      24912.0     -1.00000
      583.000      453.000      83.4902      71.4688      87.8317      68.2815      60.9934      110.156      154.400      218.669      361.432      635.496      1194.92      2066.60      3503.45      7235.83      24912.0     -1.00000
      184.000      472.000      87.5586      81.0829      57.0107      78.5730      116.316      96.3113      157.212      225.158      358.285      632.947      1252.83      2142.59      3692.43      7512.46      24912.0     -1.00000
      994.000      577.000      79.7364      27.0632      86.3722      52.1637      78.7682      81.5859      137.692      211.874      306.582      552.017      1007.81      1676.04      2968.44      6101.51      21369.0     -1.00000
      864.000      553.000      25.7984      79.7527      75.8629      76.1275      63.6106      107.964      161.377      220.277      356.418      569.100      1142.14      1899.01      3351.53      6893.39      24912.0     -1.00000
      236.000      397.000      60.3978      86.4517      67.9062      54.5112      81.9056      107.983      159.496      194.700      356.195      601.607      1140.21      1923.55      3383.67      6965.65      24912.0     -1.00000
      736.000      479.000      55.8468      79.6029      2.04989      51.2854      69.2695      114.055      165.245      241.905      355.816      603.666      1168.00      1935.60      3406.84      7063.63      24496.8     -1.00000
      5.00000      543.000      67.0101      20.3900      20.0611      63.7002      73.0166      106.529      129.372      228.219      342.511      606.173      1126.14      1826.38      3342.29      6810.21      24109.3     -1.00000
      845.000      878.000      79.5389      98.5699      116.921      96.0923      93.6985      139.488      179.029      251.455      366.491      601.902      1155.60      1923.43      3427.93      7083.31      24496.8     -1.00000
      953.000      630.000      58.4542      54.6870      56.6114      74.8834      82.3368      114.117      152.277      226.827      359.210      598.553      1094.31      1906.32      3354.81      6858.13      24496.8     -1.00000
      290.000      234.000      43.2230      49.8083      40.0115      35.4100      69.0764      69.9592      126.979      193.390      324.360      574.046      1118.32      1897.08      3379.89      6867.98      24496.8     -1.00000
      177.000      491.000      61.3291      70.0547      75.4621      72.6285      83.6152      94.3648      127.921      250.518      388.177      571.678      1123.48      1867.95      3360.25      6877.75      24109.3     -1.00000
      506.000      190.000      45.5064      36.0066      56.8986      57.5898      64.6027      91.4017      129.546      232.840      341.938      644.657      1149.71      1928.90      3419.57      6941.62      24496.8     -1.00000
      640.000      724.000      82.7606      92.9531      77.1090      72.5122      81.4739      127.931      156.127      248.624      390.429      565.012      1095.97      1733.95      3091.67      6502.13      24109.3     -1.00000
      1000.00      773.000      48.2392      62.7771      78.5450      64.5889      95.4933      117.620      139.102      240.292      361.922      597.475      1172.90      2030.83      3496.26      7038.83      24109.3     -1.00000
      11.0000      687.000      102.009      83.0306      98.7991      75.7368      86.5766      138.191      211.203      280.728      385.567      608.954      1118.05      1860.95      3251.89      6716.11      24109.3     -1.00000
      1015.00      105.000      10.3762      27.5211      21.8258      27.7400      57.0063      85.5805      120.098      186.671      304.833      537.494      1104.79      1835.40      3362.66      6794.83      23694.1     -1.00000
      259.000      131.000      31.4143      18.5562      42.2740      34.3461      16.6123      14.5279      23.9788      41.1669      82.6503      103.426      190.111      245.891      306.460      380.354      23694.1     -1.00000
      637.000      143.000      45.9574      27.1058      58.9198      39.2343      58.1878      66.1056      129.482      221.546      364.605      594.482      1142.01      1984.41      3471.01      6962.34      23694.1     -1.00000
      656.000      940.000      73.7498      82.7537      81.4448      93.9720      97.1707      140.451      152.937      223.087      361.497      536.622      1055.90      1754.48      3140.15      6541.30      23694.1     -1.00000
      483.000      353.000      68.9807      55.6004      55.9201      53.1122      67.5572      97.3645      151.212      218.509      372.585      610.577      1143.42      1968.39      3400.70      7001.54      23306.6     -1.00000
      538.000      1018.00      108.683      63.8053      41.6878      103.332      109.418      140.890      210.508      246.892      369.493      571.944      1022.87      1688.83      3168.41      6291.96      23306.6     -1.00000
      583.000      9.00000      20.7667      29.7467      8.35292      33.6747      18.4925      67.5778      84.2329      194.849      306.818      523.829      1038.10      1730.38      3043.06      6388.29      23306.6     -1.00000
      995.000      502.000      45.0725      42.9571      44.4805      49.7985      65.3156      76.2762      122.724      213.836      359.111      564.528      1196.92      2003.21      3476.17      6689.05      23694.1     -1.00000
      228.000      987.000      113.689      129.892      111.524      100.957      131.838      169.989      227.025      314.015      417.267      626.137      1171.87      1866.64      3228.41      6699.27      23694.1     -1.00000
      476.000      930.000      80.0108      50.7509      131.781      77.9738      100.201      140.399      171.231      241.134      344.887      574.022      1113.07      1791.81      3160.76      6610.09      23306.6     -1.00000
      1000.00      965.000      57.8461      110.756      62.7075      75.9275      95.6700      109.995      136.064      226.705      339.761      553.047      1062.57      1828.13      3188.09      6598.60      23306.6     -1.00000
      549.000      500.000      46.1759      67.0654      60.0456      59.4283      76.3763      121.559      168.909      230.799      327.334      559.247      1099.99      1851.29      3156.42      6405.17      23306.6     -1.00000
      518.000      381.000      59.8411      59.6845      46.3361      68.8751      73.3831      105.486      139.757      214.693      333.668      601.975      1099.39      1904.62      3297.77      6650.54      22919.0     -1.00000
      323.000      931.000      42.2358      80.4450      118.303      100.006      112.887      151.143      173.064      259.052      356.328      618.307      1152.64      1816.34      3285.02      6730.44      22919.0     -1.00000
      496.000      58.0000      24.2327      43.7512      54.9223      44.2246      40.6748      60.8281      125.805      205.728      335.522      535.059      1093.70      1854.02      3177.76      6538.15      22531.5     -1.00000
      691.000      42.0000      17.5738      18.3468      29.3884      13.1100      36.9624      14.2346      89.4293      148.913      306.039      527.646      1072.52      1838.07      3177.92      6439.20      22919.0     -1.00000
      519.000      948.000      96.4146      61.4877      106.911      80.8273      114.799      126.179      172.182      233.749      335.829      551.339      998.567      1706.53      3003.30      6151.17      22531.5     -1.00000
      417.000      858.000      83.1326      68.7888      118.184      95.2415      122.160      123.706      183.639      238.161      390.685      594.093      1119.60      1822.99      3259.48      6688.64      22531.5     -1.00000
      401.000      0.00000      25.1315      9.21153      17.4776      30.2932      44.0002      68.9450      112.374      200.104      338.035      557.479      1130.35      1846.83      3186.81      6569.91      22919.0     -1.00000
      803.000      134.000      6.65488      39.9496      32.9127      41.8597      78.3289      49.4981      103.746      185.844      293.852      515.961      1040.61      1764.78      3032.29      6374.96      22144.0     -1.00000
      849.000      208.000      33.3097      41.4682      28.0722      46.2405      44.0885      54.4953      115.570      200.565      304.044      552.472      1022.38      1804.16      3086.29      6375.08      22531.5     -1.00000
      487.000      774.000      18.0943      29.8823      42.6370      78.2542      83.9275      109.069      164.232      244.985      330.978      544.927      1025.46      1746.66      3003.48      6151.30      22144.0     -1.00000
      694.000      142.000      26.1741      22.0202      43.8659      37.0208      29.8202      56.9645      126.971      169.693      285.678      516.770      1057.53      1766.50      3092.46      6294.61      21756.5     -1.00000
      706.000      498.000      80.1258      20.7400      90.1868      66.3944      95.2311      100.887      141.419      240.166      331.438      571.691      1064.36      1698.75      3103.11      6268.26      21756.5     -1.00000
      149.000      699.000      83.8691      58.0653      50.0483      60.9545      82.1234      123.775      153.459      202.357      332.120      540.349      983.892      1657.34      2897.86      5941.05      21756.5     -1.00000
      343.000      276.000      36.8272      67.6605      62.5548      55.0912      70.0419      94.9570      149.112      205.101      335.003      562.629      1097.49      1855.48      3176.81      6383.62      22144.0     -1.00000
      939.000      387.000      18.8699      54.1117      67.0503      61.8851      52.0999      95.4044      123.825      128.143      237.640      310.891      593.241      1153.66      3890.11      8234.30      21369.0     -1.00000
      632.000      429.000      44.3501      59.1792      39.7977      65.7930      82.4999      91.2037      149.663      252.750      336.551      557.546      1114.40      1922.10      3368.85      6933.58      21369.0     -1.00000
      535.000      885.000      84.8978      69.2263      112.516      99.7487      128.533      114.524      168.880      228.445      358.913      507.032      956.042      1538.54      2716.26      5296.50      21369.0     -1.00000
      900.000      911.000      23.1196      58.4839      90.1458      71.7907      107.130      126.435      141.289      205.787      344.121      509.661      977.201      1637.95      2862.60      6121.53      21369.0     -1.00000
      537.000      139.000      23.8427      44.2625      30.8655      37.4835      35.4415      62.4044      94.6722      146.400      319.536      490.817      1030.92      1742.48      2978.81      6150.62      20981.4     -1.00000
      349.000      498.000      91.8528      61.2373      66.7328      73.3874      65.2182      105.505      141.419      201.471      320.594      568.686      1036.96      1767.12      3023.28      6121.61      21369.0     -1.00000
      552.000      971.000      102.309      61.5894      92.2990      101.172      105.158      150.139      142.990      231.129      314.447      502.675      932.321      1541.37      2733.12      5732.52      20981.4     -1.00000
      582.000      882.000      46.0217      75.5773      117.003      110.028      134.580      190.404      272.001      415.750      689.364      1199.07      2387.36      4251.38      7537.15      15826.8      20593.9     -1.00000
      333.000      827.000      102.698      47.0285      28.2038      97.1552      99.1992      86.9160      144.305      201.373      310.952      515.156      942.131      1591.84      2797.57      5696.99      20593.9     -1.00000
      1.00000      406.000      45.8599      23.7803      41.6847      80.5736      77.6274      92.4149      157.739      197.329      316.208      548.976      999.757      1647.37      2870.81      5906.64      20234.1     -1.00000
      275.000      898.000      91.3830      107.712      56.7197      87.4428      111.470      152.208      181.078      272.591      356.135      580.866      993.939      1553.89      2727.31      5550.56      20234.1     -1.00000
      109.000      429.000      45.6391      65.6470      57.8187      63.4310      70.8536      62.9301      121.983      175.494      279.840      474.229      843.254      1346.14      2349.07      4798.99      16303.5     -1.00000
      624.000      974.000      109.589      38.2905      52.1656      98.3901      107.324      127.095      154.654      213.111      293.807      496.329      963.175      1563.11      2734.51      5639.67      20234.1     -1.00000
      406.000      233.000      25.4588      40.7846      58.4208      37.1616      56.7881      94.6375      121.523      190.069      323.487      516.561      1077.67      1461.10      3198.41      6316.36      19846.6     -1.00000
      886.000      446.000      60.5673      61.9779      76.5324      39.7693      69.8560      96.0453      132.985      180.927      292.438      517.400      991.722      1583.67      2818.28      5737.73      20234.1     -1.00000
      685.000      586.000      98.8355      14.6746      80.7055      69.5154      71.4640      121.553      99.1736      143.176      188.386      268.269      341.506      432.994      574.753      769.910      19846.6     -1.00000
      321.000      366.000      76.2180      57.6145      52.8219      55.9399      54.7961      96.5489      138.473      205.885      314.199      545.510      984.170      1616.56      2833.89      5790.44      20234.1     -1.00000
      552.000      526.000      47.3653      50.1314      60.7885      66.5079      80.3242      104.282      151.590      183.620      281.616      482.796      919.992      1537.01      2768.43      5511.99      19846.6     -1.00000
      659.000      870.000      62.5036      101.946      60.8291      82.4298      120.203      117.465      166.516      230.364      318.438      505.047      965.648      1593.95      2781.06      5597.68      19846.6     -1.00000
      395.000      36.0000      30.4428      12.0872      28.3274      24.1032      35.6997      60.2229      104.638      152.789      286.647      503.403      964.145      1657.94      2827.76      5642.34      19846.6     -1.00000
      771.000      561.000      90.7598      78.1915      94.6538      71.0703      84.7043      124.983      135.183      203.449      347.298      525.850      986.621      1614.00      2759.45      5657.21      19846.6     -1.00000
      447.000      538.000      12.1776      36.0214      114.348      54.3922      65.8689      100.831      112.367      217.763      306.004      545.773      921.849      1629.73      2778.62      5656.77      19846.6     -1.00000
      55.0000      816.000      116.870      89.1952      25.7120      68.4393      75.9316      106.709      157.129      202.229      259.114      482.128      881.207      1528.45      2675.28      5550.77      19486.7     -1.00000
      789.000      511.000      40.7594      78.7646      86.1414      55.1605      55.4670      81.5995      152.254      197.870      321.738      518.882      986.553      1660.27      2809.82      5691.73      19846.6     -1.00000
      1003.00      642.000      72.0343      100.091      78.6220      71.9448      65.3738      93.0017      126.518      163.319      268.237      448.430      818.394      1370.99      2342.63      4878.89      16995.5     -1.00000
      806.000      11.0000      29.0712      11.3996      24.5604      34.8768      41.8575      51.5750      113.634      149.924      241.114      476.149      904.649      1487.75      2744.17      5549.27      19126.9     -1.00000
      39.0000      82.0000      25.4492      20.7539      35.1115      21.9961      53.7439      60.2990      66.6456      193.489      282.823      500.508      979.145      1673.02      2920.43      5808.44      19846.6     -1.00000
      425.000      414.000      30.9729      52.3474      73.8052      70.0289      75.0419      95.1341      149.951      215.570      348.675      601.995      1058.88      1864.44      3168.12      6495.38      19126.9     -1.00000
      124.000      972.000      58.0121      71.3740      57.9811      84.5568      99.0711      149.118      160.550      235.531      341.476      522.631      961.794      1582.40      2733.97      5622.27      19126.9     -1.00000
      145.000      210.000      30.1479      31.2218      31.4127      40.9704      27.7817      52.8347      123.338      184.054      257.048      473.237      904.548      1504.54      2608.57      5292.02      19126.9     -1.00000
      430.000      0.00000      28.1039     -4.59108      19.3959      31.5688      3.52021      45.8790      95.1519      161.572      311.035      455.618      880.400      1506.69      2526.41      4916.66      18739.4     -1.00000
      224.000      696.000      89.5028      53.6224      109.579      74.3999      105.592      114.923      159.569      232.526      344.133      505.006      896.801      1507.00      2505.85      5052.73      18739.4     -1.00000
      290.000      288.000      53.6499      28.1143      54.8457      58.5665      40.2855      83.0650      113.085      181.954      283.556      491.945      931.360      1575.88      2693.35      5504.93      19126.9     -1.00000
      397.000      541.000      72.1980      73.2472      94.6639      54.0228      77.8577      102.654      136.183      177.889      287.127      498.303      899.189      1484.35      2532.58      5155.03      18739.4     -1.00000
      778.000      719.000      54.7322      101.219      48.5767      70.0591      81.5338      105.057      135.607      204.375      298.930      455.771      923.253      1511.84      2572.33      5253.13      18739.4     -1.00000
      723.000      893.000      51.5207      29.3436      86.8894      68.9223      87.7057      132.183      163.859      237.555      326.498      518.993      895.751      1543.26      2624.92      5321.16      18739.4     -1.00000
      89.0000      52.0000      12.8651      37.0903      18.9135      36.7549      44.6439      81.1017      87.3158      204.437      271.883      490.762      891.936      1506.04      2635.15      5365.78      18739.4     -1.00000
      445.000      159.000      10.1826      41.7330      46.2384      48.3417      54.5913      65.3531      93.4390      185.806      276.462      510.491      926.691      1589.91      2708.64      5404.45      18739.4     -1.00000
      618.000      1018.00      95.9652      92.4761      135.253      91.3028      123.122      128.380      155.148      198.181      298.589      453.258      864.176      1459.55      2528.09      5081.74      18407.2     -1.00000
      39.0000      628.000      77.5581      80.2709      91.9201      65.2891      72.6502      92.6373      131.685      189.716      308.867      458.298      875.154      1420.13      2532.02      5106.04      18407.2     -1.00000
      15.0000      161.000      37.2055      34.2236      30.7710      34.6797      43.8380      62.2234      96.1610      161.492      246.419      445.571      864.874      1457.75      2479.73      5150.42      18407.2     -1.00000
      207.000      72.0000      4.47629      10.6006      35.8862      37.4450     -3.04370      68.4467      87.9673      156.410      290.676      471.861      908.875      1533.82      2632.51      5081.76      18407.2     -1.00000
      357.000      85.0000      11.8470      25.0088      29.8804      32.5835      72.3547      63.0659      94.3964      140.879      244.656      462.868      867.257      1492.00      2542.62      5188.84      18407.2     -1.00000
      599.000      149.000      27.9692      28.5891      44.4603      25.6655      18.4728      82.7600      101.201      153.502      289.885      480.478      921.473      1526.54      2574.63      5224.95      18407.2     -1.00000
      343.000      829.000      46.3702      33.6916      65.0500      97.2571      98.5395      118.830      145.327      210.741      333.504      456.761      918.010      1454.53      2469.58      5044.36      18047.4     -1.00000
      195.000      771.000      39.1127      38.3310      73.9898      76.4075      86.3617      103.728      128.887      183.329      324.457      490.062      869.069      1448.91      2468.80      5053.28      18047.4     -1.00000
      812.000      212.000      27.2749      32.2143      34.1978      46.9509      40.7355      67.6306      92.5810      154.989      256.333      460.101      869.954      1517.31      2503.51      5022.27      18047.4     -1.00000
      592.000      94.0000      27.8170      15.9054      28.5503      16.2765      35.6714      52.1661      102.805      144.391      263.046      423.617      906.049      1454.75      2474.64      5085.18      18047.4     -1.00000
      6.00000      450.000      70.7220      39.8905      68.1810      62.9851      69.1405      93.4198      153.149      164.282      298.593      491.427      904.771      1471.42      2512.58      5081.10      18047.4     -1.00000
      238.000      33.0000      18.0596      10.3505      13.3374      22.3651     -15.3238      33.0298      97.5640      170.918      246.482      433.077      854.898      1392.81      2494.82      5070.67      18047.4     -1.00000
      853.000      858.000      108.081      43.1034      110.302      88.4257      108.509      104.330      156.296      210.481      338.350      497.969      869.653      1480.38      2514.15      5087.21      18047.4     -1.00000
      624.000      715.000      35.2047      44.9979      64.5981      56.9982      52.6206      105.245      137.205      208.328      314.059      450.731      876.026      1418.14      2452.22      5095.86      18047.4     -1.00000
      23.0000      396.000      45.0079      49.5356      54.9217      50.6570      61.7007      69.2863      104.097      164.736      277.117      464.965      890.032      1491.78      2509.43      5162.39      18047.4     -1.00000
      10.0000      309.000      46.6463      69.7113      6.38308      45.9074      48.4885      94.9453      110.747      180.901      270.670      464.297      825.289      1439.05      2507.75      5122.50      18047.4     -1.00000
      303.000      532.000      79.1794      50.6052      68.7714      49.0048      87.3445      107.098      181.077      253.365      384.786      650.583      1250.11      1414.27      2394.49      4860.06      17687.5     -1.00000
      368.000      176.000      24.9268      63.9985      49.1401      42.5607      25.8436      67.5052      89.6244      164.398      261.212      446.147      855.995      1399.51      2405.17      4969.14      16995.5     -1.00000
      392.000      647.000      33.6745      15.1075      81.8306      61.1258      83.9477      98.5429      125.219      199.586      297.523      476.155      876.673      1526.31      2535.21      5227.94      17687.5     -1.00000
      455.000      802.000      95.3625      43.3050      122.018      77.2626      91.9402      104.442      148.476      224.300      341.737      460.797      908.482      1512.95      2588.38      5194.72      18047.4     -1.00000
